# omega(Hartree), S(1/Hartree)
1.095444464024046072e-03,1.161213899088880508e+00
2.190888928048092144e-03,1.195681892728001294e+00
3.286333392072138000e-03,1.230770020533699993e+00
4.381777856096184288e-03,1.266473351337031650e+00
5.477222320120230144e-03,1.302786284992712762e+00
6.572666784144275999e-03,1.339702548927121928e+00
7.668111248168322722e-03,1.377215195918666701e+00
8.763555712192368577e-03,1.415316603129237460e+00
9.859000176216414432e-03,1.453998472397801667e+00
1.095444464024046029e-02,1.493251831804866203e+00
1.204988910426450614e-02,1.533067038511641167e+00
1.314533356828855200e-02,1.573433782873091102e+00
1.424077803231259785e-02,1.614341093821063389e+00
1.533622249633664544e-02,1.655777345507581044e+00
1.643166696036068783e-02,1.697730265195865229e+00
1.752711142438473715e-02,1.740186942381550139e+00
1.862255588840878301e-02,1.783133839122620135e+00
1.971800035243282886e-02,1.826556801553101961e+00
2.081344481645687472e-02,1.870441072550874217e+00
2.190888928048092057e-02,1.914771305527197764e+00
2.300433374450496643e-02,1.959531579301347692e+00
2.409977820852901229e-02,2.004705414020872212e+00
2.519522267255305814e-02,2.050275788084393369e+00
2.629066713657710400e-02,2.096225156021277680e+00
2.738611160060114985e-02,2.142535467280030304e+00
2.848155606462519571e-02,2.189188185873830683e+00
2.957700052864924503e-02,2.236164310830581758e+00
3.067244499267329089e-02,2.283444397392229153e+00
3.176788945669733327e-02,2.331008578906236028e+00
3.286333392072137566e-02,2.378836589351166708e+00
3.395877838474542498e-02,2.426907786436736547e+00
3.505422284876947431e-02,2.475201175218006533e+00
3.614966731279351669e-02,2.523695432162431196e+00
3.724511177681756602e-02,2.572368929608410681e+00
3.834055624084160840e-02,2.621199760553685643e+00
3.943600070486565773e-02,2.670165763711917606e+00
4.053144516888970011e-02,2.719244548776427628e+00
4.162688963291374944e-02,2.768413521830327184e+00
4.272233409693779183e-02,2.817649910843254002e+00
4.381777856096184115e-02,2.866930791196184547e+00
4.491322302498588354e-02,2.916233111176290915e+00
4.600866748900993286e-02,2.965533717386456214e+00
4.710411195303397525e-02,3.014809380014106033e+00
4.819955641705802457e-02,3.064036817907212829e+00
4.929500088108207390e-02,3.113192723406576601e+00
5.039044534510611628e-02,3.162253786885225626e+00
5.148588980913015867e-02,3.211196720948928274e+00
5.258133427315420799e-02,3.259998284253002421e+00
5.367677873717825038e-02,3.308635304893770446e+00
5.477222320120229970e-02,3.357084703335155407e+00
5.586766766522634903e-02,3.405323514833364928e+00
5.696311212925039141e-02,3.453328911325390216e+00
5.805855659327444074e-02,3.501078222749290703e+00
5.915400105729849006e-02,3.548548957767569068e+00
6.024944552132253245e-02,3.595718823866342895e+00
6.134488998534658177e-02,3.642565746807121752e+00
6.244033444937061722e-02,3.689067889409447965e+00
6.353577891339466654e-02,3.735203669645693392e+00
6.463122337741870893e-02,3.780951778032020538e+00
6.572666784144275132e-02,3.826291194301308263e+00
6.682211230546680758e-02,3.871201203347410580e+00
6.791755676949084997e-02,3.915661410431684253e+00
6.901300123351489235e-02,3.959651755644508331e+00
7.010844569753894862e-02,4.003152527618356160e+00
7.120389016156299100e-02,4.046144376489822392e+00
7.229933462558703339e-02,4.088608326110318103e+00
7.339477908961108965e-02,4.130525785507314751e+00
7.449022355363513204e-02,4.171878559599869973e+00
7.558566801765917442e-02,4.212648859173929949e+00
7.668111248168321681e-02,4.252819310124205998e+00
7.777655694570725919e-02,4.292372961971651080e+00
7.887200140973131546e-02,4.331293295666561960e+00
7.996744587375535784e-02,4.369564230688623319e+00
8.106289033777940023e-02,4.407170131456942919e+00
8.215833480180345649e-02,4.444095813063880129e+00
8.325377926582749888e-02,4.480326546347563443e+00
8.434922372985154126e-02,4.515848062319268941e+00
8.544466819387558365e-02,4.550646555962109652e+00
8.654011265789963991e-02,4.584708689419140448e+00
8.763555712192368230e-02,4.618021594588560319e+00
8.873100158594772469e-02,4.650572875145374319e+00
8.982644604997176707e-02,4.682350608008450266e+00
9.092189051399580946e-02,4.713343344273032365e+00
9.201733497801986572e-02,4.743540109628717971e+00
9.311277944204390811e-02,4.772930404283250994e+00
9.420822390606795049e-02,4.801504202412828270e+00
9.530366837009200676e-02,4.829251951159453604e+00
9.639911283411604914e-02,4.856164569196258718e+00
9.749455729814009153e-02,4.882233444881565632e+00
9.859000176216414779e-02,4.907450434022186947e+00
9.968544622618819018e-02,4.931807857266908179e+00
1.007808906902122326e-01,4.955298497150296022e+00
1.018763351542362888e-01,4.977915594807234001e+00
1.029717796182603173e-01,4.999652846378122462e+00
1.040672240822843597e-01,5.020504399124670059e+00
1.051626685463084160e-01,5.040464847275042182e+00
1.062581130103324584e-01,5.059529227618320135e+00
1.073535574743565008e-01,5.077693014866093257e+00
1.084490019383805570e-01,5.094952116799813524e+00
1.095444464024045994e-01,5.111302869221753475e+00
1.106398908664286418e-01,5.126742030726817667e+00
1.117353353304526981e-01,5.141266777311836123e+00
1.128307797944767404e-01,5.154874696839260473e+00
1.139262242585007828e-01,5.167563783370773933e+00
1.150216687225248391e-01,5.179332431386042046e+00
1.161171131865488815e-01,5.190179429901967900e+00
1.172125576505729239e-01,5.200103956506204383e+00
1.183080021145969801e-01,5.209105571319036621e+00
1.194034465786210225e-01,5.217184210896804508e+00
1.204988910426450649e-01,5.224340182089378004e+00
1.215943355066691212e-01,5.230574155864173846e+00
1.226897799706931635e-01,5.235887161107806165e+00
1.237852244347171921e-01,5.240280578416917301e+00
1.248806688987412344e-01,5.243756133888513027e+00
1.259761133627652907e-01,5.246315892919621859e+00
1.270715578267893331e-01,5.247962254025847706e+00
1.281670022908133755e-01,5.248697942687916118e+00
1.292624467548374179e-01,5.248526005234233516e+00
1.303578912188614602e-01,5.247449802767564897e+00
1.314533356828855026e-01,5.245473005143175271e+00
1.325487801469095728e-01,5.242599585005205398e+00
1.336442246109336152e-01,5.238833811887682934e+00
1.347396690749576575e-01,5.234180246386126001e+00
1.358351135389816999e-01,5.228643734404982979e+00
1.369305580030057423e-01,5.222229401486401912e+00
1.380260024670297847e-01,5.214942647222830630e+00
1.391214469310538548e-01,5.206789139761377250e+00
1.402168913950778972e-01,5.197774810397543632e+00
1.413123358591019396e-01,5.187905848270290221e+00
1.424077803231259820e-01,5.177188695149461672e+00
1.435032247871500244e-01,5.165630040328835548e+00
1.445986692511740668e-01,5.153236815620132028e+00
1.456941137151981369e-01,5.140016190451738964e+00
1.467895581792221793e-01,5.125975567072617700e+00
1.478850026432462217e-01,5.111122575862407480e+00
1.489804471072702641e-01,5.095465070747676073e+00
1.500758915712943065e-01,5.079011124724635451e+00
1.511713360353183488e-01,5.061769025487355300e+00
1.522667804993423912e-01,5.043747271161371337e+00
1.533622249633664336e-01,5.024954566140625190e+00
1.544576694273904760e-01,5.005399817027169185e+00
1.555531138914145184e-01,4.985092128671161582e+00
1.566485583554385608e-01,4.964040800309097889e+00
1.577440028194626309e-01,4.942255321798068479e+00
1.588394472834866733e-01,4.919745369942862823e+00
1.599348917475107157e-01,4.896520804912958269e+00
1.610303362115347581e-01,4.872591666745951677e+00
1.621257806755588005e-01,4.847968171933792370e+00
1.632212251395828428e-01,4.822660710087426139e+00
1.643166696036069130e-01,4.796679840676004503e+00
1.654121140676309554e-01,4.770036289835887899e+00
1.665075585316549978e-01,4.742740947244189265e+00
1.676030029956790401e-01,4.714804863052385997e+00
1.686984474597030825e-01,4.686239244874098375e+00
1.697938919237271249e-01,4.657055454821600549e+00
1.708893363877511673e-01,4.627265006584928564e+00
1.719847808517752374e-01,4.596879562547919740e+00
1.730802253157992798e-01,4.565910930934168555e+00
1.741756697798233222e-01,4.534371062976943811e+00
1.752711142438473646e-01,4.502272050105674772e+00
1.763665587078714070e-01,4.469626121142605157e+00
1.774620031718954494e-01,4.436445639501924276e+00
1.785574476359194918e-01,4.402743100384152619e+00
1.796528920999435341e-01,4.368531127958552140e+00
1.807483365639675765e-01,4.333822472525197256e+00
1.818437810279916189e-01,4.298630007649923535e+00
1.829392254920156613e-01,4.262966727262981870e+00
1.840346699560397314e-01,4.226845742714090193e+00
1.851301144200637738e-01,4.190280279776117389e+00
1.862255588840878162e-01,4.153283675587838175e+00
1.873210033481118586e-01,4.115869375529134011e+00
1.884164478121359010e-01,4.078050930018950915e+00
1.895118922761599434e-01,4.039841991228759532e+00
1.906073367401840135e-01,4.001256309702458935e+00
1.917027812042080559e-01,3.962307730875112899e+00
1.927982256682320983e-01,3.923010191482029008e+00
1.938936701322561407e-01,3.883377715849871237e+00
1.949891145962801831e-01,3.843424412062577566e+00
1.960845590603042254e-01,3.803164467993541464e+00
1.971800035243282956e-01,3.762612147196997991e+00
1.982754479883523380e-01,3.721781784650781688e+00
1.993708924523763804e-01,3.680687782343758929e+00
2.004663369164004227e-01,3.639344604700928354e+00
2.015617813804244651e-01,3.597766773839333077e+00
2.026572258444485075e-01,3.555968864649539984e+00
2.037526703084725777e-01,3.513965499695820061e+00
2.048481147724966200e-01,3.471771343930624365e+00
2.059435592365206347e-01,3.429401099217960436e+00
2.070390037005446771e-01,3.386869498662041789e+00
2.081344481645687194e-01,3.344191300736451655e+00
2.092298926285927896e-01,3.301381283211807016e+00
2.103253370926168320e-01,3.258454236878645993e+00
2.114207815566408744e-01,3.215424959063967414e+00
2.125162260206649167e-01,3.172308246940727106e+00
2.136116704846889591e-01,3.129118890629117633e+00
2.147071149487130015e-01,3.085871666090865162e+00
2.158025594127370717e-01,3.042581327817627912e+00
2.168980038767611140e-01,2.999262601315488386e+00
2.179934483407851564e-01,2.955930175388605363e+00
2.190888928048091988e-01,2.912598694226471885e+00
2.201843372688332134e-01,2.869282749299005175e+00
2.212797817328572836e-01,2.825996871066070781e+00
2.223752261968813260e-01,2.782755520507751879e+00
2.234706706609053961e-01,2.739573080483962197e+00
2.245661151249294107e-01,2.696463846931526298e+00
2.256615595889534809e-01,2.653442019909471927e+00
2.267570040529774955e-01,2.610521694503202372e+00
2.278524485170015657e-01,2.567716851599344707e+00
2.289478929810256080e-01,2.525041348544964315e+00
2.300433374450496782e-01,2.482508909704638889e+00
2.311387819090736928e-01,2.440133116930886192e+00
2.322342263730977630e-01,2.397927399963486472e+00
2.333296708371217776e-01,2.355905026775193534e+00
2.344251153011458477e-01,2.314079093881698856e+00
2.355205597651698901e-01,2.272462516633847684e+00
2.366160042291939603e-01,2.231068019512622236e+00
2.377114486932179749e-01,2.189908126446547865e+00
2.388068931572420450e-01,2.148995151172731433e+00
2.399023376212660597e-01,2.108341187662888583e+00
2.409977820852901298e-01,2.067958100637599994e+00
2.420932265493141722e-01,2.027857516188598108e+00
2.431886710133382423e-01,1.988050812536471090e+00
2.442841154773622570e-01,1.948549110942881857e+00
2.453795599413863271e-01,1.909363266803140391e+00
2.464750044054103417e-01,1.870503860942313246e+00
2.475704488694343841e-01,1.831981191138087883e+00
2.486658933334584543e-01,1.793805263894312274e+00
2.497613377974824689e-01,1.755985786488467149e+00
2.508567822615065390e-01,1.718532159315671493e+00
2.519522267255305814e-01,1.681453468552336794e+00
2.530476711895546238e-01,1.644758479161207543e+00
2.541431156535786662e-01,1.608455628259178871e+00
2.552385601176027086e-01,1.572553018868607433e+00
2.563340045816267510e-01,1.537058414071948320e+00
2.574294490456507933e-01,1.501979231588215447e+00
2.585248935096748357e-01,1.467322538789709752e+00
2.596203379736989336e-01,1.433095048174553243e+00
2.607157824377229205e-01,1.399303113311805236e+00
2.618112269017470184e-01,1.365952725271571522e+00
2.629066713657710053e-01,1.333049509554355527e+00
2.640021158297951032e-01,1.300598723529162060e+00
2.650975602938191455e-01,1.268605254391436121e+00
2.661930047578431879e-01,1.237073617647782342e+00
2.672884492218672303e-01,1.206007956134219183e+00
2.683838936858912727e-01,1.175412039572410805e+00
2.694793381499153151e-01,1.145289264667095130e+00
2.705747826139393575e-01,1.115642655745913814e+00
2.716702270779633999e-01,1.086474865939804468e+00
2.727656715419874978e-01,1.057788178904535137e+00
2.738611160060114846e-01,1.029584511075359865e+00
2.749565604700355270e-01,1.001865414452707270e+00
2.760520049340595694e-01,9.746320799090746334e-01
2.771474493980836118e-01,9.478853410085222864e-01
2.782428938621077097e-01,9.216256783289583643e-01
2.793383383261316966e-01,8.958532242729086992e-01
2.804337827901557945e-01,8.705677683552246471e-01
2.815292272541797813e-01,8.457687629506417393e-01
2.826246717182038792e-01,8.214553294853321752e-01
2.837201161822279216e-01,7.976262650549384992e-01
2.848155606462519640e-01,7.742800494488489838e-01
2.859110051102760064e-01,7.514148525620243380e-01
2.870064495743000488e-01,7.290285421720736903e-01
2.881018940383240912e-01,7.071186920597086756e-01
2.891973385023481335e-01,6.856825904510644998e-01
2.902927829663721759e-01,6.647172487560887300e-01
2.913882274303962738e-01,6.442194105810835625e-01
2.924836718944202607e-01,6.241855609901576507e-01
2.935791163584443586e-01,6.046119359898410872e-01
2.946745608224683455e-01,5.854945322136496655e-01
2.957700052864924434e-01,5.668291167799858199e-01
2.968654497505164858e-01,5.486112372979173868e-01
2.979608942145405281e-01,5.308362319979172961e-01
2.990563386785645705e-01,5.134992399590593282e-01
3.001517831425886129e-01,4.965952114117754834e-01
3.012472276066126553e-01,4.801189180887074914e-01
3.023426720706366977e-01,4.640649636021469404e-01
3.034381165346607401e-01,4.484277938230257776e-01
3.045335609986847825e-01,4.332017072396602275e-01
3.056290054627088248e-01,4.183808652742841971e-01
3.067244499267328672e-01,4.039593025355113776e-01
3.078198943907569096e-01,3.899309369864868424e-01
3.089153388547809520e-01,3.762895800095293342e-01
3.100107833188050499e-01,3.630289463480739220e-01
3.111062277828290368e-01,3.501426639074463609e-01
3.122016722468531347e-01,3.376242833995709014e-01
3.132971167108771215e-01,3.254672878155440707e-01
3.143925611749012194e-01,3.136651017066275360e-01
3.154880056389252618e-01,3.022111002683449121e-01
3.165834501029493042e-01,2.910986182080216311e-01
3.176788945669733466e-01,2.803209583867368182e-01
3.187743390309973890e-01,2.698714002259028910e-01
3.198697834950214314e-01,2.597432078668905353e-01
3.209652279590454738e-01,2.499296380776034610e-01
3.220606724230695161e-01,2.404239478962669208e-01
3.231561168870936140e-01,2.312194020082861123e-01
3.242515613511176009e-01,2.223092798483845278e-01
3.253470058151416988e-01,2.136868824261480559e-01
3.264424502791656857e-01,2.053455388691837191e-01
3.275378947431897836e-01,1.972786126821955144e-01
3.286333392072138260e-01,1.894795077212331758e-01
3.297287836712378128e-01,1.819416738802793754e-01
3.308242281352619107e-01,1.746586124916576499e-01
3.319196725992858976e-01,1.676238814399118593e-01
3.330151170633099955e-01,1.608310999916278961e-01
3.341105615273339824e-01,1.542739533424244691e-01
3.352060059913580803e-01,1.479461968835853181e-01
3.363014504553821227e-01,1.418416601931302701e-01
3.373968949194061651e-01,1.359542507538529788e-01
3.384923393834302074e-01,1.302779574025710041e-01
3.395877838474542498e-01,1.248068535172701249e-01
3.406832283114782922e-01,1.195350999454260071e-01
3.417786727755023346e-01,1.144569476802441282e-01
3.428741172395263770e-01,1.095667402909564214e-01
3.439695617035504749e-01,1.048589161131334574e-01
3.450650061675744618e-01,1.003280102063628249e-01
3.461604506315985597e-01,9.596865608526944369e-02
3.472558950956225465e-01,9.177558723197075385e-02
3.483513395596466444e-01,8.774363839650589636e-02
3.494467840236706868e-01,8.386774669360097523e-02
3.505422284876947292e-01,8.014295250259408088e-02
3.516376729517187716e-01,7.656440017794584330e-02
3.527331174157428140e-01,7.312733857957245953e-02
3.538285618797668564e-01,6.982712142869650085e-02
3.549240063437908987e-01,6.665920749855619443e-02
3.560194508078149411e-01,6.361916064730747944e-02
3.571148952718389835e-01,6.070264970026235940e-02
3.582103397358630259e-01,5.790544818960252638e-02
3.593057841998870683e-01,5.522343395937865523e-02
3.604012286639111107e-01,5.265258864250436932e-02
3.614966731279351531e-01,5.018899701826228660e-02
3.625921175919592510e-01,4.782884625601357270e-02
3.636875620559832378e-01,4.556842505365637369e-02
3.647830065200073357e-01,4.340412267682851322e-02
3.658784509840313226e-01,4.133242790650563242e-02
3.669738954480554205e-01,3.934992790035779509e-02
3.680693399120794629e-01,3.745330697607136827e-02
3.691647843761035053e-01,3.563934532096270369e-02
3.702602288401275477e-01,3.390491763536981201e-02
3.713556733041515900e-01,3.224699171542511761e-02
3.724511177681756324e-01,3.066262698001306561e-02
3.735465622321996748e-01,2.914897294907589642e-02
3.746420066962237172e-01,2.770326767673473786e-02
3.757374511602478151e-01,2.632283614521948450e-02
3.768328956242718020e-01,2.500508862510692626e-02
3.779283400882958999e-01,2.374751900459210960e-02
3.790237845523198867e-01,2.254770309480077714e-02
3.801192290163439846e-01,2.140329691300998927e-02
3.812146734803680270e-01,2.031203494938655513e-02
3.823101179443920694e-01,1.927172842046585843e-02
3.834055624084161118e-01,1.828026351315974879e-02
3.845010068724400987e-01,1.733559962313557454e-02
3.855964513364641966e-01,1.643576758948928768e-02
3.866918958004882390e-01,1.557886793094454166e-02
3.877873402645122813e-01,1.476306908465139546e-02
3.888827847285363237e-01,1.398660565105291735e-02
3.899782291925603661e-01,1.324777664763506814e-02
3.910736736565844085e-01,1.254494377289080975e-02
3.921691181206084509e-01,1.187652968464648386e-02
3.932645625846324933e-01,1.124101629241590350e-02
3.943600070486565912e-01,1.063694306749247281e-02
3.954554515126805780e-01,1.006290537209723716e-02
3.965508959767046759e-01,9.517552808911828449e-03
3.976463404407286628e-01,8.999587592336067213e-03
3.987417849047527607e-01,8.507762943490081511e-03
3.998372293687768031e-01,8.040881509736315380e-03
4.009326738328008455e-01,7.597793810202511239e-03
4.020281182968248879e-01,7.177396707060639154e-03
4.031235627608489303e-01,6.778631905585636233e-03
4.042190072248729726e-01,6.400484481763832507e-03
4.053144516888970150e-01,6.041981438913403973e-03
4.064098961529210574e-01,5.702190294704209163e-03
4.075053406169451553e-01,5.380217696717603387e-03
4.086007850809691422e-01,5.075208070551082661e-03
4.096962295449932401e-01,4.786342296377656645e-03
4.107916740090172270e-01,4.512836418370104290e-03
4.118871184730412693e-01,4.253940384198724375e-03
4.129825629370653672e-01,4.008936816408793270e-03
4.140780074010893541e-01,3.777139814818110224e-03
4.151734518651134520e-01,3.557893789905383630e-03
4.162688963291374389e-01,3.350572327809967551e-03
4.173643407931615368e-01,3.154577086642103637e-03
4.184597852571855792e-01,2.969336722155403556e-03
4.195552297212096216e-01,2.794305846295047028e-03
4.206506741852336639e-01,2.628964014085400074e-03
4.217461186492577063e-01,2.472814741306825648e-03
4.228415631132817487e-01,2.325384552387670112e-03
4.239370075773057911e-01,2.186222056772899134e-03
4.250324520413298335e-01,2.054897054151419000e-03
4.261278965053539314e-01,1.930999669172772833e-03
4.272233409693779183e-01,1.814139512887233104e-03
4.283187854334020161e-01,1.703944872348812966e-03
4.294142298974260030e-01,1.600061927585459893e-03
4.305096743614501009e-01,1.502153993862848569e-03
4.316051188254741433e-01,1.409900791482784216e-03
4.327005632894981857e-01,1.322997739652765703e-03
4.337960077535222281e-01,1.241155276330158054e-03
4.348914522175462705e-01,1.164098200936312206e-03
4.359868966815703129e-01,1.091565042801339799e-03
4.370823411455943552e-01,1.023307451346398616e-03
