# omega(Hartree) S(1/Hartree) dS(1/Hartree)
1.095444464024046072e-03,1.499859780524256614e+00,7.585024176528855078e-01
2.190888928048092144e-03,1.516161842579113017e+00,7.257270755626820113e-01
3.286333392072138000e-03,1.534617628049068649e+00,6.890089278275828288e-01
4.381777856096184288e-03,1.555131865705926097e+00,6.492525042271920510e-01
5.477222320120230144e-03,1.577618298395869756e+00,6.073415439804313865e-01
6.572666784144275999e-03,1.601998221899044950e+00,5.641304465279024516e-01
7.668111248168322722e-03,1.628199228187013015e+00,5.204439542068745039e-01
8.763555712192368577e-03,1.656154122594194700e+00,4.770852863392127663e-01
9.859000176216414432e-03,1.685799989746465055e+00,4.348528265250711233e-01
1.095444464024046029e-02,1.717077387414379874e+00,3.945650248340831223e-01
1.204988910426450614e-02,1.749929650966979722e+00,3.570912634182797363e-01
1.314533356828855200e-02,1.784302293964147745e+00,3.233810757164007899e-01
1.424077803231259785e-02,1.820142492757102382e+00,2.944733132610253268e-01
1.533622249633664544e-02,1.857398644873043736e+00,2.714503691439603683e-01
1.643166696036068783e-02,1.896019992519748287e+00,2.552946356027522290e-01
1.752711142438473715e-02,1.935956303821267488e+00,2.466409062226402327e-01
1.862255588840878301e-02,1.977157605444760824e+00,2.455216982408353898e-01
1.971800035243282886e-02,2.019573961133982465e+00,2.512847588894308593e-01
2.081344481645687472e-02,2.063155291372196665e+00,2.627702955640734417e-01
2.190888928048092057e-02,2.107851229974469387e+00,2.786292503996267711e-01
2.300433374450496643e-02,2.153611013886654657e+00,2.975926353324526152e-01
2.409977820852901229e-02,2.200383402861343374e+00,3.186062242538490463e-01
2.519522267255305814e-02,2.248116626005995489e+00,3.408551513234822083e-01
2.629066713657710400e-02,2.296758352468353248e+00,3.637337482746383355e-01
2.738611160060114985e-02,2.346255683751221621e+00,3.868000375212455322e-01
2.848155606462519571e-02,2.396555165337796556e+00,4.097331377598892876e-01
2.957700052864924503e-02,2.447602815473213234e+00,4.322991869782130125e-01
3.067244499267329089e-02,2.499344169086571199e+00,4.543258502784706110e-01
3.176788945669733327e-02,2.551724334962964136e+00,4.756838671894494941e-01
3.286333392072137566e-02,2.604688064384359514e+00,4.962738413248879987e-01
3.395877838474542498e-02,2.658179829559963014e+00,5.160168448510525918e-01
3.505422284876947431e-02,2.712143910259847690e+00,5.348477141194627471e-01
3.614966731279351669e-02,2.766524487154237821e+00,5.527102743193899048e-01
3.724511177681756602e-02,2.821265740447687520e+00,5.695539540493099739e-01
3.834055624084160840e-02,2.876311952477851541e+00,5.853313671482671676e-01
3.943600070486565773e-02,2.931607613033588855e+00,5.999966413511421681e-01
4.053144516888970011e-02,2.987097526225379163e+00,6.135042871938284348e-01
4.162688963291374944e-02,3.042726917825268718e+00,6.258084817565013891e-01
4.272233409693779183e-02,3.098441542068886889e+00,6.368626797897156688e-01
4.381777856096184115e-02,3.154187786999343324e+00,6.466195028785863830e-01
4.491322302498588354e-02,3.209912777507906156e+00,6.550308627340281076e-01
4.600866748900993286e-02,3.265564475306195646e+00,6.620482996160158562e-01
4.710411195303397525e-02,3.321091775149303871e+00,6.676235383168545034e-01
4.819955641705802457e-02,3.376444596698415790e+00,6.717092612810788843e-01
4.929500088108207390e-02,3.431573971495986974e+00,6.742601145388680273e-01
5.039044534510611628e-02,3.486432124596385851e+00,6.752339909278235464e-01
5.148588980913015867e-02,3.540972550469715152e+00,6.745936117943885924e-01
5.258133427315420799e-02,3.595150082866173324e+00,6.723084806445607242e-01
5.367677873717825038e-02,3.648920958395030389e+00,6.683572748312434086e-01
5.477222320120229970e-02,3.702242873637768383e+00,6.627307680664169531e-01
5.586766766522634903e-02,3.755075035674548367e+00,6.554354113300998597e-01
5.696311212925039141e-02,3.807378205961125861e+00,6.464977150363795388e-01
5.805855659327444074e-02,3.859114737546622376e+00,6.359696198269930711e-01
5.915400105729849006e-02,3.910248605671597932e+00,6.239350784289741103e-01
6.024944552132253245e-02,3.960745431832251917e+00,6.105181125339954606e-01
6.134488998534658177e-02,4.010572501436943327e+00,5.958925785247346507e-01
6.244033444937061722e-02,4.059698775219175104e+00,5.802938720068435696e-01
6.353577891339466654e-02,4.108094894603686598e+00,5.640325971337476485e-01
6.463122337741870893e-02,4.155733181251989983e+00,5.475098058720753169e-01
6.572666784144275132e-02,4.202587631038491089e+00,5.312326158375388907e-01
6.682211230546680758e-02,4.248633902729295642e+00,5.158275624549107929e-01
6.791755676949084997e-02,4.293849301654053541e+00,5.020468949771295097e-01
6.901300123351489235e-02,4.338212758674483638e+00,4.907604077770092998e-01
7.010844569753894862e-02,4.381704804764565253e+00,4.829236074330180428e-01
7.120389016156299100e-02,4.424307541524304277e+00,4.795145228696972017e-01
7.229933462558703339e-02,4.466004607953911965e+00,4.814394879008078720e-01
7.339477908961108965e-02,4.506781143816728452e+00,4.894228269030684308e-01
7.449022355363513204e-02,4.546623749919374902e+00,5.039099075320612187e-01
7.558566801765917442e-02,4.585520445633277653e+00,5.250153130001978807e-01
7.668111248168321681e-02,4.623460623978455253e+00,5.525316800909013670e-01
7.777655694570725919e-02,4.660435004581702678e+00,5.859893378704411626e-01
7.887200140973131546e-02,4.696435584814991238e+00,6.247398468082102641e-01
7.996744587375535784e-02,4.731455589408346540e+00,6.680365286817467885e-01
8.106289033777940023e-02,4.765489418821358569e+00,7.150963443940414610e-01
8.215833480180345649e-02,4.798532596645539883e+00,7.651396628751730988e-01
8.325377926582749888e-02,4.830581716296531880e+00,8.174116658745597119e-01
8.434922372985154126e-02,4.861634387241992705e+00,8.711913959336600177e-01
8.544466819387558365e-02,4.891689180997556008e+00,9.257937470079056208e-01
8.654011265789963991e-02,4.920745577108113444e+00,9.805682193749972742e-01
8.763555712192368230e-02,4.948803909318223226e+00,1.034896684150564905e+00
8.873100158594772469e-02,4.975865312120482109e+00,1.088191414572414306e+00
8.982644604997176707e-02,5.001931667857015817e+00,1.139893900169860919e+00
9.092189051399580946e-02,5.027005554533851672e+00,1.189474641448548420e+00
9.201733497801986572e-02,5.051090194495565733e+00,1.236433808122824329e+00
9.311277944204390811e-02,5.074189404092841471e+00,1.280302670215847982e+00
9.420822390606795049e-02,5.096307544462757022e+00,1.320645581543765212e+00
9.530366837009200676e-02,5.117449473529093851e+00,1.357062322676603427e+00
9.639911283411604914e-02,5.137620499317485212e+00,1.389190621776901891e+00
9.749455729814009153e-02,5.156826334668529022e+00,1.416708697738551237e+00
9.859000176216414779e-02,5.175073053421141545e+00,1.439337627164060551e+00
9.968544622618819018e-02,5.192367048127517037e+00,1.456843468219422233e+00
1.007808906902122326e-01,5.208714989351563851e+00,1.469038984564960959e+00
1.018763351542362888e-01,5.224123786593236396e+00,1.475784922027618018e+00
1.029717796182603173e-01,5.238600550872165584e+00,1.476990735465940840e+00
1.040672240822843597e-01,5.252152558996601606e+00,1.472614769368849386e+00
1.051626685463084160e-01,5.264787219535884688e+00,1.462663828779017905e+00
1.062581130103324584e-01,5.276512040507644663e+00,1.447192168397961609e+00
1.073535574743565008e-01,5.287334598784908302e+00,1.426299922391500496e+00
1.084490019383805570e-01,5.297262511222844417e+00,1.400130981524255525e+00
1.095444464024045994e-01,5.306303407499069813e+00,1.368870403774130162e+00
1.106398908664286418e-01,5.314464904657506317e+00,1.332741411474189785e+00
1.117353353304526981e-01,5.321754583341317790e+00,1.292002067143873667e+00
1.128307797944767404e-01,5.328179965696539178e+00,1.246941705622196306e+00
1.139262242585007828e-01,5.333748494925822037e+00,1.197877271650909181e+00
1.150216687225248391e-01,5.338467516467479967e+00,1.145149648834632661e+00
1.161171131865488815e-01,5.342344260774033238e+00,1.089120160159054551e+00
1.172125576505729239e-01,5.345385827661570666e+00,1.030167407147490888e+00
1.183080021145969801e-01,5.347599172199474005e+00,9.686846927012187081e-01
1.194034465786210225e-01,5.348991092110249035e+00,9.050783327436420223e-01
1.204988910426450649e-01,5.349568216645096186e+00,8.397673390798908732e-01
1.215943355066691212e-01,5.349336996903295116e+00,7.731851878479863993e-01
1.226897799706931635e-01,5.348303697561020087e+00,7.057848712738743480e-01
1.237852244347171921e-01,5.346474389974815722e+00,6.380492860310593706e-01
1.248806688987412344e-01,5.343854946625747004e+00,5.705106916944836515e-01
1.259761133627652907e-01,5.340451036868902435e+00,5.037861971108157366e-01
1.270715578267893331e-01,5.336268123954559073e+00,4.386427455958830657e-01
1.281670022908133755e-01,5.331311463285517860e+00,3.761178980160220231e-01
1.292624467548374179e-01,5.325586101877836320e+00,3.177456762228343390e-01
1.303578912188614602e-01,5.319096878993090804e+00,2.659608869094861605e-01
1.314533356828855026e-01,5.311848427885394130e+00,2.246785938865007437e-01
1.325487801469095728e-01,5.303845178705066665e+00,1.994400470523122748e-01
1.336442246109336152e-01,5.295091362399210411e+00,1.951948782316775821e-01
1.347396690749576575e-01,5.285591015705639606e+00,2.117824666860408100e-01
1.358351135389816999e-01,5.275347987130812655e+00,2.436453827798585048e-01
1.369305580030057423e-01,5.264365943906661904e+00,2.844708826889707498e-01
1.380260024670297847e-01,5.252648379891709851e+00,3.298376931658975608e-01
1.391214469310538548e-01,5.240198624385600468e+00,3.771138229932380903e-01
1.402168913950778972e-01,5.227019851826823604e+00,4.247719983397971744e-01
1.413123358591019396e-01,5.213115092343580947e+00,4.719033159869905347e-01
1.424077803231259820e-01,5.198487243127029700e+00,5.179461038516167681e-01
1.435032247871500244e-01,5.183139080597270798e+00,5.625410985629828442e-01
1.445986692511740668e-01,5.167073273331175720e+00,6.054527288335658231e-01
1.456941137151981369e-01,5.150292395721723260e+00,6.465247019399146255e-01
1.467895581792221793e-01,5.132798942337568171e+00,6.856538085893997270e-01
1.478850026432462217e-01,5.114595342951491652e+00,7.227737824680836587e-01
1.489804471072702641e-01,5.095683978205489240e+00,7.578448929578829318e-01
1.500758915712943065e-01,5.076067195879175209e+00,7.908469540818522381e-01
1.511713360353183488e-01,5.055747327728675522e+00,8.217744444669980997e-01
1.522667804993423912e-01,5.034726706859967038e+00,8.506329604479447859e-01
1.533622249633664336e-01,5.013007685601669650e+00,8.774365747740791033e-01
1.544576694273904760e-01,4.990592653839590831e+00,9.022057970214322209e-01
1.555531138914145184e-01,4.967484057774364636e+00,9.249659750421034277e-01
1.566485583554385608e-01,4.943684419062573276e+00,9.457460062560250069e-01
1.577440028194626309e-01,4.919196354298976281e+00,9.645772960257570361e-01
1.588394472834866733e-01,4.894022594796923364e+00,9.814928985788449189e-01
1.599348917475107157e-01,4.868166006621329700e+00,9.965268042060561049e-01
1.610303362115347581e-01,4.841629610827632213e+00,1.009713352478369464e+00
1.621257806755588005e-01,4.814416603856738419e+00,1.021086738183513809e+00
1.632212251395828428e-01,4.786530378035962485e+00,1.030680605536766548e+00
1.643166696036069130e-01,4.757974542131845119e+00,1.038527712191714469e+00
1.654121140676309554e-01,4.728752941900030926e+00,1.044659653442518543e+00
1.665075585316549978e-01,4.698869680574948582e+00,1.049106640438450588e+00
1.676030029956790401e-01,4.668329139239536296e+00,1.051897324554311952e+00
1.686984474597030825e-01,4.637135997013773547e+00,1.053058663397659078e+00
1.697938919237271249e-01,4.605295250998456602e+00,1.052615823258876926e+00
1.708893363877511673e-01,4.572812235908643608e+00,1.050592115255894576e+00
1.719847808517752374e-01,4.539692643329979127e+00,1.047008962087615513e+00
1.730802253157992798e-01,4.505942540528375950e+00,1.041885896172892068e+00
1.741756697798233222e-01,4.471568388742944933e+00,1.035240583299203321e+00
1.752711142438473646e-01,4.436577060890506630e+00,1.027088878151950491e+00
1.763665587078714070e-01,4.400975858607925950e+00,1.017444907304444701e+00
1.774620031718954494e-01,4.364772528559336173e+00,1.006321185298489684e+00
1.785574476359194918e-01,4.327975277932649689e+00,9.937287652965507423e-01
1.796528920999435341e-01,4.290592789051272504e+00,9.796774287102670842e-01
1.807483365639675765e-01,4.252634233025303523e+00,9.641759221405229452e-01
1.818437810279916189e-01,4.214109282367654252e+00,9.472322486320664536e-01
1.829392254920156613e-01,4.175028122501031724e+00,9.288540241286560306e-01
1.840346699560397314e-01,4.135401462082704427e+00,9.090489159098864569e-01
1.851301144200637738e-01,4.095240542074980894e+00,8.878251799754220963e-01
1.862255588840878162e-01,4.054557143492342419e+00,8.651923248755472029e-01
1.873210033481118586e-01,4.013363593756431591e+00,8.411619376790242519e-01
1.884164478121359010e-01,3.971672771597043461e+00,8.157487143890547188e-01
1.895118922761599434e-01,3.929498110431387747e+00,7.889717625077693475e-01
1.906073367401840135e-01,3.886853600175559365e+00,7.608562622670642650e-01
1.917027812042080559e-01,3.843753787419016188e+00,7.314356080148505246e-01
1.927982256682320983e-01,3.800213773927392680e+00,7.007542096746023352e-01
1.938936701322561407e-01,3.756249213422535149e+00,6.688712023060834344e-01
1.949891145962801831e-01,3.711876306603680398e+00,6.358654431528201201e-01
1.960845590603042254e-01,3.667111794378030254e+00,6.018423383914396352e-01
1.971800035243282956e-01,3.621972949275892528e+00,5.669433307335983718e-01
1.982754479883523380e-01,3.576477565031507488e+00,5.313592734865424383e-01
1.993708924523763804e-01,3.530643944318975436e+00,4.953495263454132380e-01
2.004663369164004227e-01,3.484490884641077812e+00,4.592694211292126516e-01
2.015617813804244651e-01,3.438037662373891301e+00,4.236096442429989062e-01
2.026572258444485075e-01,3.391304014983452131e+00,3.890514535791785855e-01
2.037526703084725777e-01,3.344310121433450966e+00,3.565393228557249827e-01
2.048481147724966200e-01,3.297076580816602487e+00,3.273621070301347968e-01
2.059435592365206347e-01,3.249624389248525258e+00,3.032047234385072398e-01
2.070390037005446771e-01,3.201974915072216543e+00,2.860781940140107449e-01
2.081344481645687194e-01,3.154149872431108115e+00,2.779967417831782361e-01
2.092298926285927896e-01,3.106171293276297263e+00,2.803824186945920172e-01
2.103253370926168320e-01,3.058061497883393987e+00,2.935049236702594877e-01
2.114207815566408744e-01,3.009843063961874066e+00,3.164183166568533268e-01
2.125162260206649167e-01,2.961538794448988376e+00,3.474329504571054827e-01
2.136116704846889591e-01,2.913171684087314972e+00,3.846941962827368222e-01
2.147071149487130015e-01,2.864764884893422181e+00,4.265326953432343471e-01
2.158025594127370717e-01,2.816341670631544503e+00,4.715697960018364610e-01
2.168980038767611140e-01,2.767925400411908488e+00,5.186936038644043290e-01
2.179934483407851564e-01,2.719539481541580539e+00,5.669962513932332859e-01
2.190888928048091988e-01,2.671207331757725623e+00,6.157131706714690234e-01
2.201843372688332134e-01,2.622952340980201580e+00,6.641760631728139685e-01
2.212797817328572836e-01,2.574797832722841129e+00,7.117798359648725981e-01
2.223752261968813260e-01,2.526767025306059011e+00,7.579607229974744120e-01
2.234706706609053961e-01,2.478882993015703473e+00,8.021826924603097098e-01
2.245661151249294107e-01,2.431168627353658351e+00,8.439298634218999062e-01
2.256615595889534809e-01,2.383646598526548921e+00,8.827033239089875361e-01
2.267570040529774955e-01,2.336339317319032993e+00,9.180212179382563065e-01
2.278524485170015657e-01,2.289268897494958654e+00,9.494213206427958296e-01
2.289478929810256080e-01,2.242457118868810717e+00,9.764655240679320780e-01
2.300433374450496782e-01,2.195925391186920539e+00,9.987457918988172922e-01
2.311387819090736928e-01,2.149694718951855599e+00,1.015891206196435137e+00
2.322342263730977630e-01,2.103785667321523611e+00,1.027575760891352497e+00
2.333296708371217776e-01,2.058218329206015440e+00,1.033526577431667315e+00
2.344251153011458477e-01,2.013012293681015308e+00,1.033532192799814897e+00
2.355205597651698901e-01,1.968186615828051433e+00,1.027450599596068548e+00
2.366160042291939603e-01,1.923759788105126711e+00,1.015216680944210248e+00
2.377114486932179749e-01,1.879749713342935946e+00,9.968487158121077663e-01
2.388068931572420450e-01,1.836173679452130392e+00,9.724536325949134641e-01
2.399023376212660597e-01,1.793048335919192882e+00,9.422307366831550457e-01
2.409977820852901298e-01,1.750389672158499721e+00,9.064737041993906619e-01
2.420932265493141722e-01,1.708212997777693642e+00,8.655707107403238787e-01
2.431886710133382423e-01,1.666532924804647875e+00,8.200027093751861562e-01
2.442841154773622570e-01,1.625363351913303500e+00,7.703400359905502315e-01
2.453795599413863271e-01,1.584717450675372064e+00,7.172377750662918272e-01
2.464750044054103417e-01,1.544607653856105323e+00,6.614306525415971638e-01
2.475704488694343841e-01,1.505045645760021866e+00,6.037287418664195604e-01
2.486658933334584543e-01,1.466042354625493260e+00,5.450160244371968776e-01
2.497613377974824689e-01,1.427607947054328585e+00,4.862550595195548886e-01
2.508567822615065390e-01,1.389751824456138207e+00,4.285028432907531659e-01
2.519522267255305814e-01,1.352482621476666758e+00,3.729454324358835726e-01
2.530476711895546238e-01,1.315808206370518540e+00,3.209607791354670003e-01
2.541431156535786662e-01,1.279735683272740454e+00,2.742137062768969513e-01
2.552385601176027086e-01,1.244271396313420652e+00,2.347500501771365156e-01
2.563340045816267510e-01,1.209420935515155726e+00,2.049354146872620075e-01
2.574294490456507933e-01,1.175189144404873653e+00,1.868874082405109771e-01
2.585248935096748357e-01,1.141580129267344645e+00,1.812384533669992026e-01
2.596203379736989336e-01,1.108597269961147713e+00,1.862197892261043541e-01
2.607157824377229205e-01,1.076243232215222667e+00,1.983969362916656876e-01
2.618112269017470184e-01,1.044519981317678425e+00,2.142837386341670258e-01
2.629066713657710053e-01,1.013428797108579804e+00,2.312581339741436870e-01
2.640021158297951032e-01,9.829702901832150230e-01,2.476337083211228030e-01
2.650975602938191455e-01,9.531444192117376479e-01,2.624240455334040378e-01
2.661930047578431879e-01,9.239505092795944341e-01,2.751069158745017007e-01
2.672884492218672303e-01,8.953872711524019090e-01,2.854573206846925393e-01
2.683838936858912727e-01,8.674528213685803735e-01,2.934393159966734999e-01
2.694793381499153151e-01,8.401447030640938340e-01,2.991363954449660634e-01
2.705747826139393575e-01,8.134599074333543900e-01,3.027056061117875951e-01
2.716702270779633999e-01,7.873948957338825494e-01,3.043463613143116420e-01
2.727656715419874978e-01,7.619456217412260424e-01,3.042787164312302228e-01
2.738611160060114846e-01,7.371075545653598127e-01,3.027280738033971685e-01
2.749565604700355270e-01,7.128757017418744235e-01,2.999144968899857822e-01
2.760520049340595694e-01,6.892446325128319673e-01,2.960454737916040635e-01
2.771474493980836118e-01,6.662085012169343123e-01,2.913113294651307195e-01
2.782428938621077097e-01,6.437610707119384434e-01,2.858826864334280682e-01
2.793383383261316966e-01,6.218957357548704490e-01,2.799094928610187383e-01
2.804337827901557945e-01,6.006055462709696258e-01,2.735212173168536376e-01
2.815292272541797813e-01,5.798832304449133002e-01,2.668278721140003307e-01
2.826246717182038792e-01,5.597212175729440187e-01,2.599215821925922598e-01
2.837201161822279216e-01,5.401116606187552627e-01,2.528784683114240761e-01
2.848155606462519640e-01,5.210464584190015458e-01,2.457606618951171384e-01
2.859110051102760064e-01,5.025172774900883432e-01,2.386183139679364518e-01
2.870064495743000488e-01,4.845155733916610141e-01,2.314915007236520161e-01
2.881018940383240912e-01,4.670326116057176846e-01,2.244119626592427363e-01
2.891973385023481335e-01,4.500594878946583277e-01,2.174046423194968825e-01
2.902927829663721759e-01,4.335871481070738831e-01,2.104890075421736451e-01
2.913882274303962738e-01,4.176064074014836924e-01,2.036801631379550059e-01
