# omega(Hartree) S(1/Hartree) dS(1/Hartree)
1.095444464024046072e-03,2.010509278254428711e+00,8.304134174808369684e-01
2.190888928048092144e-03,2.023588430090752954e+00,8.259906097236654476e-01
3.286333392072138000e-03,2.039723612206041370e+00,8.223383047510894883e-01
4.381777856096184288e-03,2.058743618580975987e+00,8.193955433566526558e-01
5.477222320120230144e-03,2.080494132528520890e+00,8.171067505521254493e-01
6.572666784144275999e-03,2.104835109558541806e+00,8.154216374581352289e-01
7.668111248168322722e-03,2.131638540836684026e+00,8.142948046216176294e-01
8.763555712192368577e-03,2.160786538083226738e+00,8.136846974699213364e-01
9.859000176216414432e-03,2.192169691289007627e+00,8.135514420673065628e-01
1.095444464024046029e-02,2.225685659127246474e+00,8.138530099403595841e-01
1.204988910426450614e-02,2.261237958830958572e+00,8.145392460448271921e-01
1.314533356828855200e-02,2.298734927891784796e+00,8.155436603107731885e-01
1.424077803231259785e-02,2.338088834488975643e+00,8.167738213963889882e-01
1.533622249633664544e-02,2.379215117265311097e+00,8.181029527297115633e-01
1.643166696036068783e-02,2.422031738098259446e+00,8.193682598060809674e-01
1.752711142438473715e-02,2.466458633993935390e+00,8.203858709358593515e-01
1.862255588840878301e-02,2.512417256265137677e+00,8.209975865831994346e-01
1.971800035243282886e-02,2.559830186823316645e+00,8.211700403853060548e-01
2.081344481645687472e-02,2.608620822786702487e+00,8.211686623764035131e-01
2.190888928048092057e-02,2.658713121737471763e+00,8.218194959685503065e-01
2.300433374450496643e-02,2.710031400894324705e+00,8.248358369050859951e-01
2.409977820852901229e-02,2.762500184240559875e+00,8.331000777209207619e-01
2.519522267255305814e-02,2.816044092289450518e+00,8.506457633556351317e-01
2.629066713657710400e-02,2.870587769705902126e+00,8.819641377146301142e-01
2.738611160060114985e-02,2.926055846455095644e+00,9.304315664849341916e-01
2.848155606462519571e-02,2.982372928528799427e+00,9.964152477604798497e-01
2.957700052864924503e-02,3.039463614629539734e+00,1.076799193972673097e+00
3.067244499267329089e-02,3.097252535473773882e+00,1.168674546636260914e+00
3.176788945669733327e-02,3.155664412623428561e+00,1.279962526574930370e+00
3.286333392072137566e-02,3.214624133976602405e+00,1.444526581804526089e+00
3.395877838474542498e-02,3.274056843246829107e+00,1.720223096331557677e+00
3.505422284876947431e-02,3.333888040944305686e+00,2.144227652548237995e+00
3.614966731279351669e-02,3.394043694542202338e+00,2.726289518767949893e+00
3.724511177681756602e-02,3.454450355673470252e+00,3.694751175433465651e+00
3.834055624084160840e-02,3.515035282356492985e+00,5.644991107014662113e+00
3.943600070486565773e-02,3.575726564397836427e+00,8.472334444718631730e+00
4.053144516888970011e-02,3.636453250263490311e+00,1.076105524302214000e+01
4.162688963291374944e-02,3.697145473850580011e+00,1.103249694184863827e+01
4.272233409693779183e-02,3.757734579735381608e+00,9.163291922994924121e+00
4.381777856096184115e-02,3.818153245594987144e+00,6.401048876774178886e+00
4.491322302498588354e-02,3.878335600650645976e+00,4.139613651914752168e+00
4.600866748900993286e-02,3.938217339095105629e+00,2.865631400153274999e+00
4.710411195303397525e-02,3.997735827601259118e+00,2.209059259772356398e+00
4.819955641705802457e-02,4.056830206128850591e+00,1.784154340540375028e+00
4.929500088108207390e-02,4.115441481366136856e+00,1.490659288107820224e+00
5.039044534510611628e-02,4.173512612256734755e+00,1.318565251815935646e+00
5.148588980913015867e-02,4.230988587173020399e+00,1.240863534009873481e+00
5.258133427315420799e-02,4.287816492400187585e+00,1.217735132614318871e+00
5.367677873717825038e-02,4.343945571695470242e+00,1.219321157860135951e+00
5.477222320120229970e-02,4.399327276778042695e+00,1.230684858243502156e+00
5.586766766522634903e-02,4.453915308693662922e+00,1.246332195362019890e+00
5.696311212925039141e-02,4.507665650076614128e+00,1.264781768639498205e+00
5.805855659327444074e-02,4.560536588405939007e+00,1.285679285459134347e+00
5.915400105729849006e-02,4.612488730419819660e+00,1.308718822437651141e+00
6.024944552132253245e-02,4.663485007911556401e+00,1.333418315334721438e+00
6.134488998534658177e-02,4.713490675184543122e+00,1.359187140824135387e+00
6.244033444937061722e-02,4.762473298490337292e+00,1.385437354553933798e+00
6.353577891339466654e-02,4.810402737814179375e+00,1.411658935130162051e+00
6.463122337741870893e-02,4.857251121406896743e+00,1.437450900325016656e+00
6.572666784144275132e-02,4.902992813489363222e+00,1.462521826111616186e+00
6.682211230546680758e-02,4.947604375579055080e+00,1.486674679151265499e+00
6.791755676949084997e-02,4.991064521904564621e+00,1.509786413256874793e+00
6.901300123351489235e-02,5.033354069385677754e+00,1.531788103266119361e+00
7.010844569753894862e-02,5.074455882664052453e+00,1.552648160532462240e+00
7.120389016156299100e-02,5.114354814671838945e+00,1.572359302843578721e+00
7.229933462558703339e-02,5.153037643224075204e+00,1.590928994395527152e+00
7.339477908961108965e-02,5.190493004116515152e+00,1.608372756483607224e+00
7.449022355363513204e-02,5.226711321200682825e+00,1.624709675217640648e+00
7.558566801765917442e-02,5.261684733898635891e+00,1.639959479694876876e+00
7.668111248168321681e-02,5.295407022604823766e+00,1.654140740556045763e+00
7.777655694570725919e-02,5.327873532406940171e+00,1.667269791681990965e+00
7.887200140973131546e-02,5.359081095540616069e+00,1.679360132852489196e+00
7.996744587375535784e-02,5.389027952972586633e+00,1.690422105546073306e+00
8.106289033777940023e-02,5.417713675487336289e+00,1.700462733368934831e+00
8.215833480180345649e-02,5.445139084631052562e+00,1.709485634270990984e+00
8.325377926582749888e-02,5.471306173843797360e+00,1.717490945604867703e+00
8.434922372985154126e-02,5.496218030090128437e+00,1.724475242984444989e+00
8.544466819387558365e-02,5.519878756274247067e+00,1.730431421236032996e+00
8.654011265789963991e-02,5.542293394704662646e+00,1.735348536771877725e+00
8.763555712192368230e-02,5.563467851850527168e+00,1.739211608368000483e+00
8.873100158594772469e-02,5.583408824609894516e+00,1.742001385888285014e+00
8.982644604997176707e-02,5.602123728289202909e+00,1.743694098312422058e+00
9.092189051399580946e-02,5.619620626472547897e+00,1.744261211380319310e+00
9.201733497801986572e-02,5.635908162938910948e+00,1.743669233335230162e+00
9.311277944204390811e-02,5.650995495767364041e+00,1.741879609000896112e+00
9.420822390606795049e-02,5.664892233750808082e+00,1.738848794546368870e+00
9.530366837009200676e-02,5.677608375222691350e+00,1.734528595402976325e+00
9.639911283411604914e-02,5.689154249384265505e+00,1.728866892339631534e+00
9.749455729814009153e-02,5.699540460204490344e+00,1.721808909480742944e+00
9.859000176216414779e-02,5.708777832951151154e+00,1.713299182618476912e+00
9.968544622618819018e-02,5.716877363397658840e+00,1.703284400692997469e+00
1.007808906902122326e-01,5.723850169738364357e+00,1.691717218423914870e+00
1.018763351542362888e-01,5.729707447233925777e+00,1.678561040921158876e+00
1.029717796182603173e-01,5.734460425597647237e+00,1.663795486632564380e+00
1.040672240822843597e-01,5.738120329124944519e+00,1.647421771785726019e+00
1.051626685463084160e-01,5.740698339559207497e+00,1.629466500675825991e+00
1.062581130103324584e-01,5.742205561680274073e+00,1.609981228043225965e+00
1.073535574743565008e-01,5.742652991594786371e+00,1.589033790186257011e+00
1.084490019383805570e-01,5.742051487701553825e+00,1.566686162971218987e+00
1.095444464024045994e-01,5.740411744300823571e+00,1.542953631552923754e+00
1.106398908664286418e-01,5.737744267810876764e+00,1.517743835733201152e+00
1.117353353304526981e-01,5.734059355551868187e+00,1.490786555156615734e+00
1.128307797944767404e-01,5.729367077054031476e+00,1.461593967390098170e+00
1.139262242585007828e-01,5.723677257844448363e+00,1.429548853983287904e+00
1.150216687225248391e-01,5.716999465662278013e+00,1.394319737850134855e+00
1.161171131865488815e-01,5.709342999057576584e+00,1.356953790326255405e+00
1.172125576505729239e-01,5.700716878315311043e+00,1.322138630653147739e+00
1.183080021145969801e-01,5.691129838655424322e+00,1.301890179861149521e+00
1.194034465786210225e-01,5.680590325661223794e+00,1.319167543476406301e+00
1.204988910426450649e-01,5.669106492869147473e+00,1.405632315375963337e+00
1.215943355066691212e-01,5.656686201478392739e+00,1.587522120277753190e+00
1.226897799706931635e-01,5.643337022118496193e+00,1.871553688380708458e+00
1.237852244347171921e-01,5.629066238621994067e+00,2.263124338993218743e+00
1.248806688987412344e-01,5.613880853747377664e+00,2.839545848681376494e+00
1.259761133627652907e-01,5.597787596796596432e+00,3.831473508607643907e+00
1.270715578267893331e-01,5.580792933071727191e+00,5.516165524645648688e+00
1.281670022908133755e-01,5.562903075115719354e+00,7.899089661244120819e+00
1.292624467548374179e-01,5.544123995680509509e+00,1.054316686056707830e+01
1.303578912188614602e-01,5.524461442366343178e+00,1.268610142071598545e+01
1.314533356828855026e-01,5.503920953875336863e+00,1.357598269329959528e+01
1.325487801469095728e-01,5.482507877820654407e+00,1.287357559842468824e+01
1.336442246109336152e-01,5.460227390033096206e+00,1.086203365451451752e+01
1.347396690749576575e-01,5.437084515304099419e+00,8.298940985453555186e+00
1.358351135389816999e-01,5.413084149503577081e+00,6.005853780185654855e+00
1.369305580030057423e-01,5.388231083009148215e+00,4.447090342136197805e+00
1.380260024670297847e-01,5.362530025380515042e+00,3.554860024168119637e+00
1.391214469310538548e-01,5.335985631211602964e+00,3.000906474188365536e+00
1.402168913950778972e-01,5.308602527089293588e+00,2.578407535472739820e+00
1.413123358591019396e-01,5.280385339585205173e+00,2.243308676968058357e+00
1.424077803231259820e-01,5.251338724203964858e+00,2.000915838667431501e+00
1.435032247871500244e-01,5.221467395207472606e+00,1.843638863410724138e+00
1.445986692511740668e-01,5.190776156230922922e+00,1.746238740640252640e+00
1.456941137151981369e-01,5.159269931602987747e+00,1.681311724956929377e+00
1.467895581792221793e-01,5.126953798277473773e+00,1.630154851085439782e+00
1.478850026432462217e-01,5.093833018279768865e+00,1.584060227807653654e+00
1.489804471072702641e-01,5.059913071567192944e+00,1.541023286365174494e+00
1.500758915712943065e-01,5.025199689196306885e+00,1.502153689022448280e+00
1.511713360353183488e-01,4.989698886687277124e+00,1.469248640962566910e+00
1.522667804993423912e-01,4.953416997468660377e+00,1.443554361687386933e+00
1.533622249633664336e-01,4.916360706282250526e+00,1.425365661448766863e+00
1.544576694273904760e-01,4.878537082422317539e+00,1.414109789968633901e+00
1.555531138914145184e-01,4.839953612678879580e+00,1.408640906058190367e+00
1.566485583554385608e-01,4.800618233850045158e+00,1.407563588318917924e+00
1.577440028194626309e-01,4.760539364684191810e+00,1.409489353534224998e+00
1.588394472834866733e-01,4.719725937108612435e+00,1.413196291786908976e+00
1.599348917475107157e-01,4.678187426597677501e+00,1.417701497001969679e+00
1.610303362115347581e-01,4.635933881530236889e+00,1.422271705231607619e+00
1.621257806755588005e-01,4.592975951383517774e+00,1.426398124553274194e+00
1.632212251395828428e-01,4.549324913608333354e+00,1.429755402277533838e+00
1.643166696036069130e-01,4.504992699029861214e+00,1.432157550852224404e+00
1.654121140676309554e-01,4.459991915616164704e+00,1.433517823958238901e+00
1.665075585316549978e-01,4.414335870458621081e+00,1.433815564570994905e+00
1.676030029956790401e-01,4.368038589808231897e+00,1.433070670619720488e+00
1.686984474597030825e-01,4.321114837014592425e+00,1.431325072270184240e+00
1.697938919237271249e-01,4.273580128217369101e+00,1.428630075145996825e+00
1.708893363877511673e-01,4.225450745643929196e+00,1.425038296482705080e+00
1.719847808517752374e-01,4.176743748373131560e+00,1.420598995774725593e+00
1.730802253157992798e-01,4.127476980431654674e+00,1.415355791691200071e+00
1.741756697798233222e-01,4.077669076095096656e+00,1.409345954824271940e+00
1.752711142438473646e-01,4.027339462280006721e+00,1.402600668928957184e+00
1.763665587078714070e-01,3.976508357917217573e+00,1.395145815991810645e+00
1.774620031718954494e-01,3.925196770213561503e+00,1.387002990304082806e+00
1.785574476359194918e-01,3.873426487718833577e+00,1.378190545266122058e+00
1.796528920999435341e-01,3.821220070130234792e+00,1.368724558023265869e+00
1.807483365639675765e-01,3.768600834781317577e+00,1.358619656401138798e+00
1.818437810279916189e-01,3.715592839778097289e+00,1.347889682862229987e+00
1.829392254920156613e-01,3.662220863763432366e+00,1.336548199895510214e+00
1.840346699560397314e-01,3.608510382307255959e+00,1.324608849332792326e+00
1.851301144200637738e-01,3.554487540940169499e+00,1.312085588323576468e+00
1.862255588840878162e-01,3.500179124867070168e+00,1.298992822662219160e+00
1.873210033481118586e-01,3.445612525416843930e+00,1.285345459834832615e+00
1.884164478121359010e-01,3.390815703305057660e+00,1.271158900201269537e+00
1.895118922761599434e-01,3.335817148806891730e+00,1.256448981559295186e+00
1.906073367401840135e-01,3.280645838956778082e+00,1.241231889392989896e+00
1.917027812042080559e-01,3.225331191913494600e+00,1.225524040852238539e+00
1.927982256682320983e-01,3.169903018646615056e+00,1.209341948048348936e+00
1.938936701322561407e-01,3.114391472121524895e+00,1.192702063777293153e+00
1.949891145962801831e-01,3.058826994177468617e+00,1.175620608883500395e+00
1.960845590603042254e-01,3.003240260307022069e+00,1.158113379918264352e+00
1.971800035243282956e-01,2.947662122576408805e+00,1.140195531835697551e+00
1.982754479883523380e-01,2.892123550909871721e+00,1.121881329078411760e+00
1.993708924523763804e-01,2.836655573013518339e+00,1.103183855981653805e+00
2.004663369164004227e-01,2.781289213194463095e+00,1.084114673921783734e+00
2.015617813804244651e-01,2.726055430356005616e+00,1.064683410615804959e+00
2.026572258444485075e-01,2.670985055454118129e+00,1.044897263084376249e+00
2.037526703084725777e-01,2.616108728702530861e+00,1.024760392476981030e+00
2.048481147724966200e-01,2.561456836826139227e+00,1.004273187299274506e+00
2.059435592365206347e-01,2.507059450651123456e+00,9.834313668741067049e-01
2.070390037005446771e-01,2.452946263331743815e+00,9.622249040246312335e-01
2.081344481645687194e-01,2.399146529502298453e+00,9.406367478872537102e-01
2.092298926285927896e-01,2.345689005640008595e+00,9.186413517747802349e-01
2.103253370926168320e-01,2.292601891918342627e+00,8.962030510243328418e-01
2.114207815566408744e-01,2.239912775818246882e+00,8.732744085176847859e-01
2.125162260206649167e-01,2.187648577754947254e+00,8.497947747775380645e-01
2.136116704846889591e-01,2.135835498963039480e+00,8.256895189274673363e-01
2.147071149487130015e-01,2.084498971868512296e+00,8.008706988863971699e-01
2.158025594127370717e-01,2.033663613158745775e+00,7.752403618558246778e-01
2.168980038767611140e-01,1.983353179742274763e+00,7.486981138807476954e-01
2.179934483407851564e-01,1.933590527773241252e+00,7.211547451606201697e-01
2.190888928048091988e-01,1.884397574891956584e+00,6.925526393798360214e-01
2.201843372688332134e-01,1.835795265812722565e+00,6.628893974435786651e-01
2.212797817328572836e-01,1.787803541368329086e+00,6.322299325934667147e-01
2.223752261968813260e-01,1.740441311098613886e+00,6.006713428117370634e-01
2.234706706609053961e-01,1.693726429445386206e+00,5.682079493609842880e-01
2.245661151249294107e-01,1.647675675597221279e+00,5.345275738624289952e-01
2.256615595889534809e-01,1.602304737001755353e+00,4.993451397035285622e-01
2.267570040529774955e-01,1.557628196543558552e+00,4.661228921616830112e-01
2.278524485170015657e-01,1.513659523363521719e+00,4.571737266321415638e-01
2.289478929810256080e-01,1.470411067274850936e+00,5.377065918280385937e-01
2.300433374450496782e-01,1.427894056712703419e+00,7.781154070964663161e-01
2.311387819090736928e-01,1.386118600133750878e+00,1.214105212533030276e+00
2.322342263730977630e-01,1.345093690767759309e+00,2.148301917800644389e+00
2.333296708371217776e-01,1.304827214604772134e+00,4.224216996517424327e+00
2.344251153011458477e-01,1.265325961488631412e+00,6.727431870912338852e+00
2.355205597651698901e-01,1.226595639174454133e+00,7.284326270016072691e+00
2.366160042291939603e-01,1.188640890196008604e+00,5.265922086024765747e+00
2.377114486932179749e-01,1.151465311378722767e+00,3.135195516946394534e+00
2.388068931572420450e-01,1.115071475827638992e+00,2.196289961433520066e+00
2.399023376212660597e-01,1.079460957210776062e+00,1.660615116432017313e+00
2.409977820852901298e-01,1.044634356154007238e+00,1.329895537045993725e+00
2.420932265493141722e-01,1.010591328562925773e+00,1.168357213623556490e+00
2.431886710133382423e-01,9.773306156764189900e-01,1.054063138235584285e+00
2.442841154773622570e-01,9.448500756706078585e-01,9.288991741895110676e-01
2.453795599413863271e-01,9.131467166159866755e-01,7.957105362079528454e-01
2.464750044054103417e-01,8.822167306046225788e-01,6.738822675815534513e-01
2.475704488694343841e-01,8.520555288617415179e-01,5.800019887505564187e-01
2.486658933334584543e-01,8.226577776619725668e-01,5.209357068254971690e-01
2.497613377974824689e-01,7.940174348737180088e-01,4.915237056044760022e-01
2.508567822615065390e-01,7.661277869645108929e-01,4.791324443982407089e-01
2.519522267255305814e-01,7.389814863023036473e-01,4.717343949572831430e-01
2.530476711895546238e-01,7.125705885990418764e-01,4.621260543466168547e-01
2.541431156535786662e-01,6.868865903487778590e-01,4.475773809392499802e-01
2.552385601176027086e-01,6.619204661200901452e-01,4.280134120404557874e-01
2.563340045816267510e-01,6.376627055741398431e-01,4.045292118759986622e-01
2.574294490456507933e-01,6.141033500850902049e-01,3.785639222372935153e-01
2.585248935096748357e-01,5.912320288515625633e-01,3.515472356447477131e-01
2.596203379736989336e-01,5.690379943951747732e-01,3.247829209305574394e-01
2.607157824377229205e-01,5.475101573525925636e-01,2.994098388603467775e-01
2.618112269017470184e-01,5.266371204754082269e-01,2.763615965808343122e-01
2.629066713657710053e-01,5.064072117628671821e-01,2.563036660720590110e-01
2.640021158297951032e-01,4.868085166589469770e-01,2.395644039066650299e-01
2.650975602938191455e-01,4.678289092567308183e-01,2.260976647087769020e-01
2.661930047578431879e-01,4.494560824586994463e-01,2.155131217428329082e-01
2.672884492218672303e-01,4.316775770509602705e-01,2.071812874700207363e-01
2.683838936858912727e-01,4.144808096569313483e-01,2.003806053728860725e-01
2.694793381499153151e-01,3.978530995436777573e-01,1.944351672381707807e-01
2.705747826139393575e-01,3.817816942585293694e-01,1.888055528105401226e-01
2.716702270779633999e-01,3.662537940850460472e-01,1.831241571743254803e-01
2.727656715419874978e-01,3.512565753070673313e-01,1.771875929289812857e-01
2.738611160060114846e-01,3.367772122813847413e-01,1.709252760115655967e-01
2.749565604700355270e-01,3.228028983198973911e-01,1.643602372737139050e-01
2.760520049340595694e-01,3.093208653901617922e-01,1.575722333823251498e-01
2.771474493980836118e-01,2.963184026459713682e-01,1.506679782198042106e-01
2.782428938621077097e-01,2.837828738034522402e-01,1.437597698079725594e-01
2.793383383261316966e-01,2.717017333831132642e-01,1.369517897676975626e-01
2.804337827901557945e-01,2.600625418402396916e-01,1.303324720603251941e-01
2.815292272541797813e-01,2.488529796079672063e-01,1.239711710185955329e-01
2.826246717182038792e-01,2.380608600831542465e-01,1.179175886698037301e-01
2.837201161822279216e-01,2.276741415825351000e-01,1.122028140483616737e-01
2.848155606462519640e-01,2.176809383030217093e-01,1.068412270083291260e-01
2.859110051102760064e-01,2.080695303179442845e-01,1.018328389380163956e-01
2.870064495743000488e-01,1.988283726439815102e-01,9.716585145069160656e-02
2.881018940383240912e-01,1.899461034147174876e-01,9.281931847583388406e-02
2.891973385023481335e-01,1.814115511952770765e-01,8.876582592879049549e-02
2.902927829663721759e-01,1.732137414764842454e-01,8.497409247941566102e-02
2.913882274303962738e-01,1.653419023831113888e-01,8.141137714755156130e-02
