# omega(Hartree) S(1/Hartree) dS(1/Hartree)
1.095444464024046072e-03,1.732589285988499928e+00,4.325823104197242586e+00
2.190888928048092144e-03,1.747875372094195523e+00,3.304562602716794029e+00
3.286333392072138000e-03,1.765718071254448240e+00,2.297509965030859469e+00
4.381777856096184288e-03,1.785989745426259212e+00,1.534900630171533775e+00
5.477222320120230144e-03,1.808575064054839476e+00,1.065568850245430799e+00
6.572666784144275999e-03,1.833369053839003504e+00,8.135870569985373946e-01
7.668111248168322722e-03,1.860275426830657164e+00,6.797513626644471341e-01
8.763555712192368577e-03,1.889205144481347576e+00,6.057061092339056652e-01
9.859000176216414432e-03,1.920075182728601781e+00,5.676795868981964199e-01
1.095444464024046029e-02,1.952807469268851293e+00,5.537650768730248974e-01
1.204988910426450614e-02,1.987327969072248290e+00,5.550155946267154583e-01
1.314533356828855200e-02,2.023565898187456025e+00,5.647856264611819110e-01
1.424077803231259785e-02,2.061453049135307580e+00,5.789162949072710340e-01
1.533622249633664544e-02,2.100923213844696935e+00,5.951770960753819395e-01
1.643166696036068783e-02,2.141911692253647637e+00,6.125040228128322273e-01
1.752711142438473715e-02,2.184354876472085927e+00,6.304303397201934667e-01
1.862255588840878301e-02,2.228189901860401445e+00,6.487579462353526560e-01
1.971800035243282886e-02,2.273354357569115969e+00,6.673954852926560211e-01
2.081344481645687472e-02,2.319786050066563909e+00,6.862883825323162768e-01
2.190888928048092057e-02,2.367422813987585695e+00,7.053927710431132647e-01
2.300433374450496643e-02,2.416202365301634902e+00,7.246676764722976838e-01
2.409977820852901229e-02,2.466062192346244242e+00,7.440736061031750781e-01
2.519522267255305814e-02,2.516939480728511924e+00,7.635727379562106121e-01
2.629066713657710400e-02,2.568771068476844999e+00,7.831290294972900190e-01
2.738611160060114985e-02,2.621493428140880155e+00,8.027080024706790828e-01
2.848155606462519571e-02,2.675042672809101685e+00,8.222762333730071482e-01
2.957700052864924503e-02,2.729354583241794696e+00,8.418007361403723188e-01
3.067244499267329089e-02,2.784364653515591481e+00,8.612483696646262565e-01
3.176788945669733327e-02,2.840008152751780646e+00,8.805853245148085318e-01
3.286333392072137566e-02,2.896220200655073462e+00,8.997767286479000370e-01
3.395877838474542498e-02,2.952935854732624321e+00,9.187863744896026530e-01
3.505422284876947431e-02,3.010090207193023559e+00,9.375765349952241978e-01
3.614966731279351669e-02,3.067618489649782454e+00,9.561078887734247855e-01
3.724511177681756602e-02,3.125456183870011895e+00,9.743394918564579621e-01
3.834055624084160840e-02,3.183539136924704582e+00,9.922288058069563821e-01
3.943600070486565773e-02,3.241803679206153532e+00,1.009731769276158486e+00
4.053144516888970011e-02,3.300186743888677832e+00,1.026802887550387844e+00
4.162688963291374944e-02,3.358625986516019069e+00,1.043395348260122146e+00
4.272233409693779183e-02,3.417059903505141438e+00,1.059461152950706753e+00
4.381777856096184115e-02,3.475427948462192607e+00,1.074951249525498920e+00
4.491322302498588354e-02,3.533670645311015157e+00,1.089815681076865772e+00
4.600866748900993286e-02,3.591729697336520477e+00,1.104003731132454869e+00
4.710411195303397525e-02,3.649548091347842860e+00,1.117464054248497485e+00
4.819955641705802457e-02,3.707070196264892203e+00,1.130144792291135403e+00
4.929500088108207390e-02,3.764241855528847047e+00,1.141993632894067634e+00
5.039044534510611628e-02,3.821010472829934557e+00,1.152957790410165773e+00
5.148588980913015867e-02,3.877325090741884139e+00,1.162983859471378834e+00
5.258133427315420799e-02,3.933136461927607908e+00,1.172017463290775385e+00
5.367677873717825038e-02,3.988397112679297418e+00,1.180002634698769759e+00
5.477222320120229970e-02,4.043061398620888980e+00,1.186880835308541826e+00
5.586766766522634903e-02,4.097085552482920612e+00,1.192589535977534476e+00
5.696311212925039141e-02,4.150427723924937418e+00,1.197060329367117593e+00
5.805855659327444074e-02,4.203048011445837062e+00,1.200216646868585535e+00
5.915400105729849006e-02,4.254908486480659668e+00,1.201971357701662413e+00
6.024944552132253245e-02,4.305973209835307181e+00,1.202224871361950775e+00
6.134488998534658177e-02,4.356208240658986597e+00,1.200864874964249207e+00
6.244033444937061722e-02,4.405581638196039762e+00,1.197769639960666765e+00
6.353577891339466654e-02,4.454063456596821347e+00,1.192817763111120088e+00
6.463122337741870893e-02,4.501625733098554960e+00,1.185908332866355774e+00
6.572666784144275132e-02,4.548242469914694830e+00,1.176996423591272212e+00
6.682211230546680758e-02,4.593889610193806483e+00,1.166148946381364127e+00
6.791755676949084997e-02,4.638545008425710492e+00,1.153624016570013122e+00
6.901300123351489235e-02,4.682188395687285620e+00,1.139971642471362623e+00
7.010844569753894862e-02,4.724801340128228055e+00,1.126142358294557555e+00
7.120389016156299100e-02,4.766367203104040939e+00,1.113573797464055604e+00
7.229933462558703339e-02,4.806871091363613679e+00,1.104209548535395546e+00
7.339477908961108965e-02,4.846299805699332275e+00,1.100413228526142539e+00
7.449022355363513204e-02,4.884641786462144530e+00,1.104819440841048106e+00
7.558566801765917442e-02,4.921887056337764577e+00,1.120357286611121550e+00
7.668111248168321681e-02,4.958027160770969388e+00,1.150956788602698788e+00
7.777655694570725919e-02,4.993055106413593514e+00,1.203557989461671696e+00
7.887200140973131546e-02,5.026965297959344880e+00,1.291434336146057404e+00
7.996744587375535784e-02,5.059753473713427319e+00,1.436895524450009676e+00
8.106289033777940023e-02,5.091416640230193913e+00,1.669110459537292979e+00
8.215833480180345649e-02,5.121953006334844183e+00,2.014679757162935125e+00
8.325377926582749888e-02,5.151361916827892351e+00,2.486065334780358071e+00
8.434922372985154126e-02,5.179643786153541818e+00,3.075274057689607154e+00
8.544466819387558365e-02,5.206800032294795599e+00,3.753580292787616290e+00
8.654011265789963991e-02,5.232833011139074841e+00,4.474438599405703876e+00
8.763555712192368230e-02,5.257745951541001439e+00,5.178492665495796565e+00
8.873100158594772469e-02,5.281542891289372932e+00,5.800817462499225918e+00
8.982644604997176707e-02,5.304228614168557954e+00,6.279921659888824337e+00
9.092189051399580946e-02,5.325808588285782186e+00,6.567048087385120247e+00
9.201733497801986572e-02,5.346288905819864823e+00,6.633807138777275902e+00
9.311277944204390811e-02,5.365676224329605226e+00,6.476404024335051801e+00
9.420822390606795049e-02,5.383977709744105056e+00,6.115538783998859529e+00
9.530366837009200676e-02,5.401200981142821433e+00,5.592163854701267311e+00
9.639911283411604914e-02,5.417354057417751001e+00,4.960298843867672502e+00
9.749455729814009153e-02,5.432445305897217303e+00,4.278649526402210412e+00
9.859000176216414779e-02,5.446483392997296669e+00,3.602830278708508693e+00
9.968544622618819018e-02,5.459477236955033952e+00,2.979457703391867440e+00
1.007808906902122326e-01,5.471435962686835630e+00,2.442565767332456339e+00
1.018763351542362888e-01,5.482368858803532419e+00,2.011921200926054976e+00
1.029717796182603173e-01,5.492285336805846185e+00,1.692430922662377935e+00
1.040672240822843597e-01,5.501194892473548315e+00,1.474704552957937898e+00
1.051626685463084160e-01,5.509107069454733718e+00,1.338448170023953887e+00
1.062581130103324584e-01,5.516031425053125048e+00,1.259414702005758002e+00
1.073535574743565008e-01,5.521977498205822954e+00,1.216565871382030428e+00
1.084490019383805570e-01,5.526954779637259563e+00,1.195410179311416465e+00
1.095444464024045994e-01,5.530972684170288645e+00,1.187443054199854409e+00
1.106398908664286418e-01,5.534040525170385472e+00,1.188068521061399485e+00
1.117353353304526981e-01,5.536167491095156379e+00,1.194745872332080516e+00
1.128307797944767404e-01,5.537362624117682763e+00,1.205859587410755829e+00
1.139262242585007828e-01,5.537634800789383860e+00,1.220186675531045539e+00
1.150216687225248391e-01,5.536992714705562868e+00,1.236707637805068538e+00
1.161171131865488815e-01,5.535444861134430461e+00,1.254566327878670506e+00
1.172125576505729239e-01,5.532999523569271716e+00,1.273071256195607681e+00
1.183080021145969801e-01,5.529664762161645264e+00,1.291694111700639747e+00
1.194034465786210225e-01,5.525448403992746726e+00,1.310055218230461449e+00
1.204988910426450649e-01,5.520358035138910324e+00,1.327899262791069734e+00
1.215943355066691212e-01,5.514400994487703045e+00,1.345067461102742445e+00
1.226897799706931635e-01,5.507584369259693524e+00,1.361471047604404516e+00
1.237852244347171921e-01,5.499914992191706098e+00,1.377068786131849576e+00
1.248806688987412344e-01,5.491399440336738103e+00,1.391849457313262040e+00
1.259761133627652907e-01,5.482044035436746121e+00,1.405819088382719517e+00
1.270715578267893331e-01,5.471854845824219993e+00,1.418992233369929412e+00
1.281670022908133755e-01,5.460837689808341722e+00,1.431386389915057844e+00
1.292624467548374179e-01,5.448998140503115373e+00,1.443018702606466253e+00
1.303578912188614602e-01,5.436341532054046688e+00,1.453904231220310983e+00
1.314533356828855026e-01,5.422872967220751406e+00,1.464055231508027299e+00
1.325487801469095728e-01,5.408597326273194561e+00,1.473481035390290739e+00
1.336442246109336152e-01,5.393519277159485092e+00,1.482188265724283527e+00
1.347396690749576575e-01,5.377643286902646480e+00,1.490181192570468660e+00
1.358351135389816999e-01,5.360973634185254078e+00,1.497462125408946187e+00
1.369305580030057423e-01,5.343514423079031239e+00,1.504031784987127418e+00
1.380260024670297847e-01,5.325269597877188232e+00,1.509889612246541502e+00
1.391214469310538548e-01,5.306242958987393621e+00,1.515034016336099132e+00
1.402168913950778972e-01,5.286438179841145057e+00,1.519462558828332810e+00
1.413123358591019396e-01,5.265858824776493918e+00,1.523172070491069841e+00
1.424077803231259820e-01,5.244508367848613517e+00,1.526158727424176131e+00
1.435032247871500244e-01,5.222390212522438624e+00,1.528418077777023543e+00
1.445986692511740668e-01,5.199507712200524878e+00,1.529945036224866772e+00
1.456941137151981369e-01,5.175864191536875047e+00,1.530733844256699339e+00
1.467895581792221793e-01,5.151462968486927529e+00,1.530778012983267100e+00
1.478850026432462217e-01,5.126307377041399604e+00,1.530070236455092214e+00
1.489804471072702641e-01,5.100400790589572964e+00,1.528602282895040743e+00
1.500758915712943065e-01,5.073746645856226145e+00,1.526364867653325019e+00
1.511713360353183488e-01,5.046348467352752998e+00,1.523347492316354135e+00
1.522667804993423912e-01,5.018209892281920048e+00,1.519538266200544330e+00
1.533622249633664336e-01,4.989334695831691313e+00,1.514923683617241723e+00
1.544576694273904760e-01,4.959726816791603099e+00,1.509488370716001837e+00
1.555531138914145184e-01,4.929390383422251887e+00,1.503214778061395140e+00
1.566485583554385608e-01,4.898329739504441172e+00,1.496082822045087912e+00
1.577440028194626309e-01,4.866549470493204410e+00,1.488069459967612973e+00
1.588394472834866733e-01,4.834054429696680977e+00,1.479148184757290263e+00
1.599348917475107157e-01,4.800849764398864572e+00,1.469288433176906272e+00
1.610303362115347581e-01,4.766940941840075219e+00,1.458454889725474546e+00
1.621257806755588005e-01,4.732333774967562690e+00,1.446606668883464897e+00
1.632212251395828428e-01,4.697034447865154227e+00,1.433696373074749841e+00
1.643166696036069130e-01,4.661049540766999399e+00,1.419669000959319360e+00
1.654121140676309554e-01,4.624386054559885828e+00,1.404460713746694678e+00
1.665075585316549978e-01,4.587051434674186190e+00,1.387997443352932736e+00
1.676030029956790401e-01,4.549053594262180589e+00,1.370193350692063827e+00
1.686984474597030825e-01,4.510400936560915675e+00,1.350949155378664113e+00
1.697938919237271249e-01,4.471102376334307849e+00,1.330150331676458686e+00
1.708893363877511673e-01,4.431167360288124080e+00,1.307665202856946651e+00
1.719847808517752374e-01,4.390605886354268073e+00,1.283342899782558666e+00
1.730802253157992798e-01,4.349428521729205244e+00,1.257011102845198458e+00
1.741756697798233222e-01,4.307646419572598084e+00,1.228473322483684571e+00
1.752711142438473646e-01,4.265271334247880297e+00,1.197505203150580844e+00
1.763665587078714070e-01,4.222315635008211387e+00,1.163848882436919752e+00
1.774620031718954494e-01,4.178792318021811170e+00,1.127203723577966610e+00
1.785574476359194918e-01,4.134715016639521679e+00,1.087210892690509523e+00
1.796528920999435341e-01,4.090098009806520274e+00,1.043428521198527248e+00
1.807483365639675765e-01,4.044956228527516018e+00,9.952947423605363886e-01
1.818437810279916189e-01,3.999305260298489983e+00,9.420806603984785976e-01
1.829392254920156613e-01,3.953161351423363890e+00,8.828515532885745642e-01
1.840346699560397314e-01,3.906541407141358668e+00,8.165003714803716894e-01
1.851301144200637738e-01,3.859462989497138619e+00,7.420398890859555285e-01
1.862255588840878162e-01,3.811944312894768316e+00,6.596706571898320881e-01
1.873210033481118586e-01,3.764004237284388488e+00,5.740505887202697055e-01
1.884164478121359010e-01,3.715662258940516161e+00,5.031223226377654623e-01
1.895118922761599434e-01,3.666938498800644819e+00,4.926885483494600204e-01
1.906073367401840135e-01,3.617853688344078389e+00,6.013298799950695939e-01
1.917027812042080559e-01,3.568429153001285492e+00,8.413134314957367854e-01
1.927982256682320983e-01,3.518686793097248078e+00,1.190234988270331362e+00
1.938936701322561407e-01,3.468649062343149403e+00,1.627390533584454957e+00
1.949891145962801831e-01,3.418338943904878136e+00,2.133732853009143504e+00
1.960845590603042254e-01,3.367779924088183385e+00,2.684700723462231320e+00
1.971800035243282956e-01,3.316995963695123617e+00,3.246766887467723794e+00
1.982754479883523380e-01,3.266011467118075107e+00,3.777743476465625694e+00
1.993708924523763804e-01,3.214851249252252963e+00,4.230357283293128212e+00
2.004663369164004227e-01,3.163540500319990567e+00,4.558506039483277483e+00
2.015617813804244651e-01,3.112104748712169577e+00,4.725071441916881554e+00
2.026572258444485075e-01,3.060569821967877857e+00,4.709559611834358783e+00
2.037526703084725777e-01,3.008961806020009622e+00,4.513557187387871039e+00
2.048481147724966200e-01,2.957307002852285649e+00,4.162288635519726832e+00
2.059435592365206347e-01,2.905631886718855750e+00,3.701440128117746475e+00
2.070390037005446771e-01,2.853963059091038978e+00,3.189603028499609305e+00
2.081344481645687194e-01,2.802327202502961967e+00,2.687665104138587946e+00
2.092298926285927896e-01,2.750751033476845020e+00,2.246868940665923908e+00
2.103253370926168320e-01,2.699261254715907832e+00,1.897645926694355056e+00
2.114207815566408744e-01,2.647884506757994139e+00,1.643290285496940006e+00
2.125162260206649167e-01,2.596647319289645317e+00,1.464328206229192908e+00
2.136116704846889591e-01,2.545576062319518051e+00,1.333245994227797437e+00
2.147071149487130015e-01,2.494696897419347970e+00,1.228630856473875266e+00
2.158025594127370717e-01,2.444035729231412546e+00,1.139876652538521329e+00
2.168980038767611140e-01,2.393618157452769957e+00,1.064277171383322562e+00
2.179934483407851564e-01,2.343469429493106215e+00,1.002171330377726433e+00
2.190888928048091988e-01,2.293614394007225332e+00,9.534743611994827006e-01
2.201843372688332134e-01,2.244077455495414597e+00,9.163770517085318978e-01
2.212797817328572836e-01,2.194882530159311340e+00,8.876900286570924559e-01
2.223752261968813260e-01,2.146053003194075881e+00,8.638657422847672018e-01
2.234706706609053961e-01,2.097611687688145210e+00,8.418977970295036251e-01
2.245661151249294107e-01,2.049580785293452223e+00,8.197643920958884722e-01
2.256615595889534809e-01,2.001981848816915210e+00,7.964598526242362420e-01
2.267570040529774955e-01,1.954835746874620250e+00,7.717941960430471093e-01
2.278524485170015657e-01,1.908162630734695275e+00,7.461176629849022301e-01
2.289478929810256080e-01,1.861981903463354460e+00,7.200611850999850683e-01
2.300433374450496782e-01,1.816312191476781246e+00,6.943310772367833339e-01
2.311387819090736928e-01,1.771171318582503540e+00,6.695665093955002201e-01
2.322342263730977630e-01,1.726576282584434407e+00,6.462548558901493045e-01
2.333296708371217776e-01,1.682543234506860275e+00,6.246951280041929122e-01
2.344251153011458477e-01,1.639087460481428948e+00,6.049983389520398047e-01
2.355205597651698901e-01,1.596223366322783166e+00,5.871134759395012503e-01
2.366160042291939603e-01,1.553964464806720569e+00,5.708682019376712935e-01
2.377114486932179749e-01,1.512323365648623907e+00,5.560145642436230551e-01
2.388068931572420450e-01,1.471311768166606138e+00,5.422720195357847439e-01
2.399023376212660597e-01,1.430940456600012123e+00,5.293627199918428117e-01
2.409977820852901298e-01,1.391219298040744734e+00,5.170367157680205716e-01
2.420932265493141722e-01,1.352157242923537339e+00,5.050869767097357910e-01
2.431886710133382423e-01,1.313762328008231339e+00,4.933556231358485200e-01
2.442841154773622570e-01,1.276041681777544179e+00,4.817334662402026901e-01
2.453795599413863271e-01,1.239001532163840569e+00,4.701550707737764401e-01
2.464750044054103417e-01,1.202647216508832884e+00,4.585912980354938107e-01
2.475704488694343841e-01,1.166983193652413764e+00,4.470408709275751069e-01
2.486658933334584543e-01,1.132013058040206799e+00,4.355220608014382933e-01
2.497613377974824689e-01,1.097739555732824224e+00,4.240652023272936666e-01
2.508567822615065390e-01,1.064164602194586084e+00,4.127064265052880487e-01
2.519522267255305814e-01,1.031289301736485919e+00,4.014827648816692296e-01
2.530476711895546238e-01,9.991139684833174606e-01,3.904286123728316626e-01
2.541431156535786662e-01,9.676381487345950827e-01,3.795734281135803023e-01
2.552385601176027086e-01,9.368606445855871545e-01,3.689404906223087699e-01
2.563340045816267510e-01,9.067795386770046706e-01,3.585464952190066112e-01
2.574294490456507933e-01,8.773922199391818166e-01,3.484017785244863941e-01
2.585248935096748357e-01,8.486954102002471911e-01,3.385109692609967746e-01
2.596203379736989336e-01,8.206851915298646327e-01,3.288738902047409485e-01
2.607157824377229205e-01,7.933570341890489042e-01,3.194865685947171352e-01
2.618112269017470184e-01,7.667058250662925900e-01,3.103422457659700262e-01
2.629066713657710053e-01,7.407258964769010134e-01,3.014323098244387489e-01
2.640021158297951032e-01,7.154110552123690292e-01,2.927471038797384573e-01
2.650975602938191455e-01,6.907546117280715103e-01,2.842765866243522899e-01
2.661930047578431879e-01,6.667494093639744213e-01,2.760108405432870615e-01
2.672884492218672303e-01,6.433878534981515296e-01,2.679404363466296735e-01
2.683838936858912727e-01,6.206619405385921384e-01,2.600566705081731600e-01
2.694793381499153151e-01,5.985632866646242167e-01,2.523516972415373871e-01
2.705747826139393575e-01,5.770831562348436305e-01,2.448185774793306402e-01
2.716702270779633999e-01,5.562124897857471106e-01,2.374512665083483853e-01
2.727656715419874978e-01,5.359419315496317671e-01,2.302445594841286969e-01
2.738611160060114846e-01,5.162618564280707645e-01,2.231940111693314077e-01
2.749565604700355270e-01,4.971623963619923869e-01,2.162958425918048433e-01
2.760520049340595694e-01,4.786334660466390889e-01,2.095468443771565104e-01
2.771474493980836118e-01,4.606647879440932680e-01,2.029442834047358868e-01
2.782428938621077097e-01,4.432459165539477941e-01,1.964858170710122032e-01
2.793383383261316966e-01,4.263662619047870472e-01,1.901694174741838383e-01
2.804337827901557945e-01,4.100151122391473835e-01,1.839933063306596339e-01
2.815292272541797813e-01,3.941816558644520851e-01,1.779559004351340123e-01
2.826246717182038792e-01,3.788550021525253220e-01,1.720557667669891377e-01
2.837201161822279216e-01,3.640242016709562267e-01,1.662915860312612903e-01
2.848155606462519640e-01,3.496782654357744047e-01,1.606621232124137433e-01
2.859110051102760064e-01,3.358061832789190904e-01,1.551662037992271315e-01
2.870064495743000488e-01,3.223969413278047758e-01,1.498026944275355210e-01
2.881018940383240912e-01,3.094395385970461487e-01,1.445704868719208391e-01
2.891973385023481335e-01,2.969230026976031889e-01,1.394684845326474576e-01
2.902927829663721759e-01,2.848364046688862117e-01,1.344955907583561538e-01
2.913882274303962738e-01,2.731688729453794484e-01,1.296506985369242360e-01
