# omega(Hartree) S(1/Hartree) dS(1/Hartree)
1.095444464024046072e-03,9.743485041581193551e-01,2.094403725805636718e+00
2.190888928048092144e-03,9.902317520734691403e-01,1.658865051169151617e+00
3.286333392072138000e-03,1.007406788349770155e+00,1.195142151066560965e+00
4.381777856096184288e-03,1.025837104075923323e+00,8.025336506760402111e-01
5.477222320120230144e-03,1.045489502017390437e+00,5.303685901541635994e-01
6.572666784144275999e-03,1.066333509507505051e+00,3.809356025619197728e-01
7.668111248168322722e-03,1.088340867710546611e+00,3.181849398500012915e-01
8.763555712192368577e-03,1.111485086701045066e+00,2.952609068878169762e-01
9.859000176216414432e-03,1.135741057580917923e+00,2.857038261868670159e-01
1.095444464024046029e-02,1.161084714309897681e+00,2.818857355170714118e-01
1.204988910426450614e-02,1.187492739112885554e+00,2.827268238503570785e-01
1.314533356828855200e-02,1.214942306303275599e+00,2.878476137891521902e-01
1.424077803231259785e-02,1.243410860159661846e+00,2.963714273460419379e-01
1.533622249633664544e-02,1.272875923150388777e+00,3.071845702018513036e-01
1.643166696036068783e-02,1.303314931339360383e+00,3.192944062224160606e-01
1.752711142438473715e-02,1.334705094249104995e+00,3.319786687704648354e-01
1.862255588840878301e-02,1.367023276821566435e+00,3.447810217313968528e-01
1.971800035243282886e-02,1.400245901415231087e+00,3.574478178789046723e-01
2.081344481645687472e-02,1.434348868023161749e+00,3.698600619355962849e-01
2.190888928048092057e-02,1.469307491097710416e+00,3.819800023449239079e-01
2.300433374450496643e-02,1.505096451533422641e+00,3.938142762116811357e-01
2.409977820852901229e-02,1.541689762495678906e+00,4.053906369724633585e-01
2.519522267255305814e-02,1.579060747894816652e+00,4.167441871209554560e-01
2.629066713657710400e-02,1.617182032398291502e+00,4.279096859444054268e-01
2.738611160060114985e-02,1.656025541950584934e+00,4.389176957065760720e-01
2.848155606462519571e-02,1.695562513835469298e+00,4.497928280416089719e-01
2.957700052864924503e-02,1.735763515369684429e+00,4.605533540465973630e-01
3.067244499267329089e-02,1.776598470365284843e+00,4.712113073360550408e-01
3.176788945669733327e-02,1.818036692538590904e+00,4.817729632837474685e-01
3.286333392072137566e-02,1.860046925081252356e+00,4.922393080518914221e-01
3.395877838474542498e-02,1.902597385643277850e+00,5.026065748488320883e-01
3.505422284876947431e-02,1.945655816009449479e+00,5.128666346885790706e-01
3.614966731279351669e-02,1.989189535781474394e+00,5.230073028700223947e-01
3.724511177681756602e-02,2.033165499408066790e+00,5.330125236412089906e-01
3.834055624084160840e-02,2.077550355934820736e+00,5.428624742280632187e-01
3.943600070486565773e-02,2.122310510875459855e+00,5.525335378927399566e-01
4.053144516888970011e-02,2.167412189635909758e+00,5.619981881455436978e-01
4.162688963291374944e-02,2.212821501953259329e+00,5.712248027783669579e-01
4.272233409693779183e-02,2.258504506842396342e+00,5.801773935657554837e-01
4.381777856096184115e-02,2.304427277574714328e+00,5.888153223041662221e-01
4.491322302498588354e-02,2.350555966244796569e+00,5.970929936447695319e-01
4.600866748900993286e-02,2.396856867513231570e+00,6.049596216935433368e-01
4.710411195303397525e-02,2.443296481146953081e+00,6.123591321937637000e-01
4.819955641705802457e-02,2.489841573009500486e+00,6.192303296675268909e-01
4.929500088108207390e-02,2.536459234187378620e+00,6.255074652746961394e-01
5.039044534510611628e-02,2.583116937970418636e+00,6.311214501192045079e-01
5.148588980913015867e-02,2.629782594436113285e+00,6.360019543533497188e-01
5.258133427315420799e-02,2.676424602418742360e+00,6.400807397941508103e-01
5.367677873717825038e-02,2.723011898675402165e+00,6.432965765440784578e-01
5.477222320120229970e-02,2.769514004090478654e+00,6.456021476462636688e-01
5.586766766522634903e-02,2.815901066788727647e+00,6.469732765898399407e-01
5.696311212925039141e-02,2.862143902054855360e+00,6.474205979324951787e-01
5.805855659327444074e-02,2.908214028984084543e+00,6.470032904475919722e-01
5.915400105729849006e-02,2.954083703812921513e+00,6.458438530479823081e-01
6.024944552132253245e-02,2.999725949903004452e+00,6.441412724919616251e-01
6.134488998534658177e-02,3.045114584373247890e+00,6.421780896634662339e-01
6.244033444937061722e-02,3.090224241395710170e+00,6.403142730671039784e-01
6.353577891339466654e-02,3.135030392189909865e+00,6.389582449511993500e-01
6.463122337741870893e-02,3.179509361767680176e+00,6.385050794861442114e-01
6.572666784144275132e-02,3.223638342495958486e+00,6.392360165107340286e-01
6.682211230546680758e-02,3.267395404560080596e+00,6.411868403779741321e-01
6.791755676949084997e-02,3.310759503421620842e+00,6.440177560803835854e-01
6.901300123351489235e-02,3.353710484376652090e+00,6.469553306072547416e-01
7.010844569753894862e-02,3.396229084329705827e+00,6.489271337523380145e-01
7.120389016156299100e-02,3.438296930906890925e+00,6.490739326229216788e-01
7.229933462558703339e-02,3.479896539037816705e+00,6.479011749978216272e-01
7.339477908961108965e-02,3.521011305142066838e+00,6.493443440852938453e-01
7.449022355363513204e-02,3.561625499060152578e+00,6.635741433819780655e-01
7.558566801765917442e-02,3.601724253870803416e+00,7.085338439417574463e-01
7.668111248168321681e-02,3.641293553739799460e+00,8.057472940372181203e-01
7.777655694570725919e-02,3.680320219944981819e+00,9.699787922043634492e-01
7.887200140973131546e-02,3.718791895223010346e+00,1.202457207671573824e+00
7.996744587375535784e-02,3.756697026581922394e+00,1.492933422355882778e+00
8.106289033777940023e-02,3.794024846722055422e+00,1.824207439193535452e+00
8.215833480180345649e-02,3.830765354204908935e+00,2.174828715751610186e+00
8.325377926582749888e-02,3.866909292507588525e+00,2.520728771097120013e+00
8.434922372985154126e-02,3.902448128095379776e+00,2.837004739586099777e+00
8.544466819387558365e-02,3.937374027642088326e+00,3.100123240396789992e+00
8.654011265789963991e-02,3.971679834522822361e+00,3.290301867358220278e+00
8.763555712192368230e-02,4.005359044698795223e+00,3.393605262717321658e+00
8.873100158594772469e-02,4.038405782109121489e+00,3.403357856125639902e+00
8.982644604997176707e-02,4.070814773678932852e+00,3.320609187666478057e+00
9.092189051399580946e-02,4.102581324047759104e+00,3.153610352613095191e+00
9.201733497801986572e-02,4.133701290116170490e+00,2.916431386409327420e+00
9.311277944204390811e-02,4.164171055503778085e+00,2.627040413220078641e+00
9.420822390606795049e-02,4.193987505004976413e+00,2.305204812890067068e+00
9.530366837009200676e-02,4.223147999124025276e+00,1.970594806107362595e+00
9.639911283411604914e-02,4.251650348764755449e+00,1.641371268762700231e+00
9.749455729814009153e-02,4.279492790145113190e+00,1.333501682711473624e+00
9.859000176216414779e-02,4.306673960001106138e+00,1.060915713255515147e+00
9.968544622618819018e-02,4.333192871139163849e+00,8.364596586986169369e-01
1.007808906902122326e-01,4.359048888391238386e+00,6.727297559018278195e-01
1.018763351542362888e-01,4.384241705021768354e+00,5.793500324887387309e-01
1.029717796182603173e-01,4.408771319630476526e+00,5.535870505764926008e-01
1.040672240822843597e-01,4.432638013590930903e+00,5.758508031761709889e-01
1.051626685463084160e-01,4.455842329060116569e+00,6.220694362276991685e-01
1.062581130103324584e-01,4.478385047589822143e+00,6.756253562087621845e-01
1.073535574743565008e-01,4.500267169367321962e+00,7.281526155259637756e-01
1.084490019383805570e-01,4.521489893108165070e+00,7.763070365570649001e-01
1.095444464024045994e-01,4.542054596621200702e+00,8.192210801115302754e-01
1.106398908664286418e-01,4.561962818062282210e+00,8.571074842375859815e-01
1.117353353304526981e-01,4.581216237889623955e+00,8.905720668255181494e-01
1.128307797944767404e-01,4.599816661531902717e+00,9.202948318589029286e-01
1.139262242585007828e-01,4.617766002775859135e+00,9.468948039306610553e-01
1.150216687225248391e-01,4.635066267880068480e+00,9.708845216534581768e-01
1.161171131865488815e-01,4.651719540416730858e+00,9.926663270279488804e-01
1.172125576505729239e-01,4.667727966842857512e+00,1.012546060295223649e+00
1.183080021145969801e-01,4.683093742800146231e+00,1.030752005038845676e+00
1.194034465786210225e-01,4.697819100140490534e+00,1.047453334979961292e+00
1.204988910426450649e-01,4.711906294673054774e+00,1.062775829667597094e+00
1.215943355066691212e-01,4.725357594627508817e+00,1.076814200274647915e+00
1.226897799706931635e-01,4.738175269826292002e+00,1.089641272079219680e+00
1.237852244347171921e-01,4.750361581558131263e+00,1.101314589806787314e+00
1.248806688987412344e-01,4.761918773144097727e+00,1.111880919285315850e+00
1.259761133627652907e-01,4.772849061186234643e+00,1.121379319498626792e+00
1.270715578267893331e-01,4.783154627488531041e+00,1.129843097731833890e+00
1.281670022908133755e-01,4.792837611639238382e+00,1.137301035889639822e+00
1.292624467548374179e-01,4.801900104243157053e+00,1.143778140456351178e+00
1.303578912188614602e-01,4.810344140791601220e+00,1.149296036226891138e+00
1.314533356828855026e-01,4.818171696158476180e+00,1.153873177609276546e+00
1.325487801469095728e-01,4.825384679709409319e+00,1.157524937562982803e+00
1.336442246109336152e-01,4.831984931011869655e+00,1.160263582771031698e+00
1.347396690749576575e-01,4.837974216133218874e+00,1.162098252882182825e+00
1.358351135389816999e-01,4.843354224513943151e+00,1.163034858600770827e+00
1.369305580030057423e-01,4.848126566403719195e+00,1.163075988596930843e+00
1.380260024670297847e-01,4.852292770847114411e+00,1.162220785672130718e+00
1.391214469310538548e-01,4.855854284206566618e+00,1.160464769735032986e+00
1.402168913950778972e-01,4.858812469210115559e+00,1.157799666987534781e+00
1.413123358591019396e-01,4.861168604511564517e+00,1.154213134901058257e+00
1.424077803231259820e-01,4.862923884750609993e+00,1.149688446810327669e+00
1.435032247871500244e-01,4.864079421101216383e+00,1.144204025266454261e+00
1.445986692511740668e-01,4.864636242296189295e+00,1.137732847664983948e+00
1.456941137151981369e-01,4.864595296116238643e+00,1.130241583190212395e+00
1.467895581792221793e-01,4.863957451332151294e+00,1.121689392892003534e+00
1.478850026432462217e-01,4.862723500088846684e+00,1.112026279485524904e+00
1.489804471072702641e-01,4.860894160719767321e+00,1.101190773949149548e+00
1.500758915712943065e-01,4.858470080981156514e+00,1.089106682954231298e+00
1.511713360353183488e-01,4.855451841695031412e+00,1.075678656284477119e+00
1.522667804993423912e-01,4.851839960790177209e+00,1.060786068750906086e+00
1.533622249633664336e-01,4.847634897731492920e+00,1.044274832857431168e+00
1.544576694273904760e-01,4.842837058324323429e+00,1.025946462327133268e+00
1.555531138914145184e-01,4.837446799888416749e+00,1.005543880703519077e+00
1.566485583554385608e-01,4.831464436785362082e+00,9.827333998421470262e-01
1.577440028194626309e-01,4.824890246293503715e+00,9.570825437066006192e-01
1.588394472834866733e-01,4.817724474817551616e+00,9.280339943905914213e-01
1.599348917475107157e-01,4.809967344423334623e+00,8.948767261521535232e-01
1.610303362115347581e-01,4.801619059686919044e+00,8.567175159719186972e-01
1.621257806755588005e-01,4.792679814847131681e+00,8.124587226687088881e-01
1.632212251395828428e-01,4.783149801251119548e+00,7.607947179879448463e-01
1.643166696036069130e-01,4.773029215081221466e+00,7.002510327734845497e-01
1.654121140676309554e-01,4.762318265352426749e+00,6.293210843856188452e-01
1.665075585316549978e-01,4.751017182168237873e+00,5.468412016319420532e-01
1.676030029956790401e-01,4.739126225223292188e+00,4.530443685875544801e-01
1.686984474597030825e-01,4.726645692540283328e+00,3.529498755279406597e-01
1.697938919237271249e-01,4.713575929428750477e+00,2.685956171223112809e-01
1.708893363877511673e-01,4.699917337651717375e+00,2.636422048511726790e-01
1.719847808517752374e-01,4.685670384787789189e+00,3.811519882731299602e-01
1.730802253157992798e-01,4.670835613773077100e+00,5.785532371501147519e-01
1.741756697798233222e-01,4.655413652609495578e+00,8.232162676850601768e-01
1.752711142438473646e-01,4.639405224223230206e+00,1.101913938137457638e+00
1.763665587078714070e-01,4.622811156457628634e+00,1.406319607551345996e+00
1.774620031718954494e-01,4.605632392184315194e+00,1.728021011543424912e+00
1.785574476359194918e-01,4.587869999514516017e+00,2.057062875279511704e+00
1.796528920999435341e-01,4.569525182093170379e+00,2.381668670202246485e+00
1.807483365639675765e-01,4.550599289456867425e+00,2.688543982804298960e+00
1.818437810279916189e-01,4.531093827436184718e+00,2.963574637805616252e+00
1.829392254920156613e-01,4.511010468582194122e+00,3.192812965734493247e+00
1.840346699560397314e-01,4.490351062596068310e+00,3.363638469539141251e+00
1.851301144200637738e-01,4.469117646740371264e+00,3.465953812112189336e+00
1.862255588840878162e-01,4.447312456208774911e+00,3.493253031808948084e+00
1.873210033481118586e-01,4.424937934431796727e+00,3.443413551511651960e+00
1.884164478121359010e-01,4.401996743293721259e+00,3.319083738300997677e+00
1.895118922761599434e-01,4.378491773236485862e+00,3.127598949367295766e+00
1.906073367401840135e-01,4.354426153224283169e+00,2.880435550923586607e+00
1.917027812042080559e-01,4.329803260543533483e+00,2.592276525600079928e+00
1.927982256682320983e-01,4.304626730410601176e+00,2.279845291312263988e+00
1.938936701322561407e-01,4.278900465360074179e+00,1.960684232046221442e+00
1.949891145962801831e-01,4.252628644385270995e+00,1.652076795451897118e+00
1.960845590603042254e-01,4.225815731802772035e+00,1.370227069283037613e+00
1.971800035243282956e-01,4.198466485811392701e+00,1.129613624164405250e+00
1.982754479883523380e-01,4.170585966716322091e+00,9.419511720147965006e-01
1.993708924523763804e-01,4.142179544789008183e+00,8.136947814391303213e-01
2.004663369164004227e-01,4.113252907731897778e+00,7.421943264872721269e-01
2.015617813804244651e-01,4.083812067718818106e+00,7.146248971042947762e-01
2.026572258444485075e-01,4.053863367980040877e+00,7.134520917010257479e-01
2.037526703084725777e-01,4.023413488902274793e+00,7.237710112871155177e-01
2.048481147724966200e-01,3.992469453613431085e+00,7.363862504798052155e-01
2.059435592365206347e-01,3.961038633022757605e+00,7.470422676287926667e-01
2.070390037005446771e-01,3.929128750286328131e+00,7.545877099215908546e-01
2.081344481645687194e-01,3.896747884670076267e+00,7.594546077432763331e-01
2.092298926285927896e-01,3.863904474781508114e+00,7.626794342403695470e-01
2.103253370926168320e-01,3.830607321143388422e+00,7.653481022848199755e-01
2.114207815566408744e-01,3.796865588082817489e+00,7.683225805344002790e-01
2.125162260206649167e-01,3.762688804910389706e+00,7.721441950757713668e-01
2.136116704846889591e-01,3.728086866366050689e+00,7.770412610817615251e-01
2.147071149487130015e-01,3.693070032308298778e+00,7.829903916201883529e-01
2.158025594127370717e-01,3.657648926626666963e+00,7.897965908595899753e-01
2.168980038767611140e-01,3.621834535357664198e+00,7.971700142301225700e-01
2.179934483407851564e-01,3.585638203986713179e+00,8.047879413812136784e-01
2.190888928048091988e-01,3.549071633921319080e+00,8.123383137285442590e-01
2.201843372688332134e-01,3.512146878121590987e+00,8.195461469267453225e-01
2.212797817328572836e-01,3.474876335877885580e+00,8.261862596728901664e-01
2.223752261968813260e-01,3.437272746726326211e+00,8.320864557288253360e-01
2.234706706609053961e-01,3.399349183497295979e+00,8.371246708624352495e-01
2.245661151249294107e-01,3.361119044492672625e+00,8.412228647550273886e-01
2.256615595889534809e-01,3.322596044792372805e+00,8.443395834549334289e-01
2.267570040529774955e-01,3.283794206692303597e+00,8.464623883380361091e-01
2.278524485170015657e-01,3.244727849278747911e+00,8.476008647842339094e-01
2.289478929810256080e-01,3.205411577149148705e+00,8.477805418498263190e-01
2.300433374450496782e-01,3.165860268289637069e+00,8.470378498060260331e-01
2.311387819090736928e-01,3.126089061125245649e+00,8.454160741763441234e-01
2.322342263730977630e-01,3.086113340760182400e+00,8.429622344834653003e-01
2.333296708371217776e-01,3.045948724430547205e+00,8.397247430889700492e-01
2.344251153011458477e-01,3.005611046193306102e+00,8.357517198141322101e-01
2.355205597651698901e-01,2.965116340879907053e+00,8.310898313817378646e-01
2.366160042291939603e-01,2.924480827345545375e+00,8.257835335099183993e-01
2.377114486932179749e-01,2.883720891048162205e+00,8.198746322599376191e-01
2.388068931572420450e-01,2.842853065994855655e+00,8.134020603847882391e-01
2.399023376212660597e-01,2.801894016095392459e+00,8.064018212199333124e-01
2.409977820852901298e-01,2.760860515966653495e+00,7.989070364845380912e-01
2.420932265493141722e-01,2.719769431233140633e+00,7.909480641291771752e-01
2.431886710133382423e-01,2.678637698372599463e+00,7.825526466532353176e-01
2.442841154773622570e-01,2.637482304157293456e+00,7.737460761880062821e-01
2.453795599413863271e-01,2.596320264743531059e+00,7.645513561581145368e-01
2.464750044054103417e-01,2.555168604465604787e+00,7.549893443387006853e-01
2.475704488694343841e-01,2.514044334389689439e+00,7.450788781156013618e-01
2.486658933334584543e-01,2.472964430687174531e+00,7.348368663835600501e-01
2.497613377974824689e-01,2.431945812886201708e+00,7.242783527519007780e-01
2.508567822615065390e-01,2.391005322063039618e+00,7.134165428286947108e-01
2.519522267255305814e-01,2.350159699034006344e+00,7.022627924738793492e-01
2.530476711895546238e-01,2.309425562610567528e+00,6.908265597392992952e-01
2.541431156535786662e-01,2.268819387979592150e+00,6.791153137869738732e-01
2.552385601176027086e-01,2.228357485270945126e+00,6.671344042049830447e-01
2.563340045816267510e-01,2.188055978374248145e+00,6.548868803433424146e-01
2.574294490456507933e-01,2.147930784066148568e+00,6.423732701653634969e-01
2.585248935096748357e-01,2.107997591508067536e+00,6.295913082846077424e-01
2.596203379736989336e-01,2.068271842173258435e+00,6.165356216603835593e-01
2.607157824377229205e-01,2.028768710261714237e+00,6.031973677071247320e-01
2.618112269017470184e-01,1.989503083656766869e+00,5.895638507178340149e-01
2.629066713657710053e-01,1.950489545479172415e+00,5.756181158168499623e-01
2.640021158297951032e-01,1.911742356288352651e+00,5.613385570223252685e-01
2.650975602938191455e-01,1.873275436980125219e+00,5.466985812116184063e-01
2.661930047578431879e-01,1.835102352427892214e+00,5.316663808659186641e-01
2.672884492218672303e-01,1.797236295908975601e+00,5.162048614958264503e-01
2.683838936858912727e-01,1.759690074356835776e+00,5.002717870160198199e-01
2.694793381499153151e-01,1.722476094475914321e+00,4.838200694119475509e-01
2.705747826139393575e-01,1.685606349751814559e+00,4.667979346230436422e-01
2.716702270779633999e-01,1.649092408386687136e+00,4.491481463374787375e-01
2.727656715419874978e-01,1.612945402185590904e+00,4.308043194151850441e-01
2.738611160060114846e-01,1.577176016415939186e+00,4.116801598026531006e-01
2.749565604700355270e-01,1.541794480658281952e+00,3.916435312867289631e-01
2.760520049340595694e-01,1.506810560662564580e+00,3.704612188523251914e-01
2.771474493980836118e-01,1.472233551220582859e+00,3.476934566600290988e-01
2.782428938621077097e-01,1.438072270061263147e+00,3.225181395552296770e-01
2.793383383261316966e-01,1.404335052771049863e+00,2.935033385379448578e-01
2.804337827901557945e-01,1.371029748738568532e+00,2.585313183764224587e-01
2.815292272541797813e-01,1.338163718119203205e+00,2.158720067728584213e-01
2.826246717182038792e-01,1.305743829810053880e+00,1.712991958713402096e-01
2.837201161822279216e-01,1.273776460424255630e+00,1.671462824461156238e-01
2.848155606462519640e-01,1.242267494249201354e+00,2.722006104127624448e-01
2.859110051102760064e-01,1.211222324169319187e+00,4.805475645630259418e-01
2.870064495743000488e-01,1.180645853532726886e+00,7.736818357081169939e-01
2.881018940383240912e-01,1.150542498936350411e+00,1.136592550502277366e+00
2.891973385023481335e-01,1.120916193902531166e+00,1.538595793291879010e+00
2.902927829663721759e-01,1.091770393417599072e+00,1.926380426964764858e+00
2.913882274303962738e-01,1.063108079299505793e+00,2.229199319826815628e+00
