# omega(Hartree) S(1/Hartree) dS(1/Hartree)
1.095444464024046072e-03,1.293509484481835781e+00,5.390331495606994761e-01
2.190888928048092144e-03,1.310184604811733822e+00,5.390784840593141336e-01
3.286333392072138000e-03,1.328655635578048111e+00,5.394211494700066334e-01
4.381777856096184288e-03,1.348853607480891226e+00,5.400631558896145101e-01
5.477222320120230144e-03,1.370715927225435005e+00,5.410092882778553269e-01
6.572666784144275999e-03,1.394185316614886982e+00,5.422659175679144239e-01
7.668111248168322722e-03,1.419208896489549954e+00,5.438390589879065207e-01
8.763555712192368577e-03,1.445737394473541881e+00,5.457313213630274884e-01
9.859000176216414432e-03,1.473724459117035757e+00,5.479373730318644053e-01
1.095444464024046029e-02,1.503126065974091263e+00,5.504376004820412671e-01
1.204988910426450614e-02,1.533900003559810266e+00,5.531898670201418344e-01
1.314533356828855200e-02,1.566005429092757639e+00,5.561197839892776384e-01
1.424077803231259785e-02,1.599402485533002682e+00,5.591108488845101254e-01
1.533622249633664544e-02,1.634051972739347214e+00,5.619973476922416333e-01
1.643166696036068783e-02,1.669915066644012125e+00,5.645652358805498539e-01
1.752711142438473715e-02,1.706953081225919044e+00,5.665693338162346437e-01
1.862255588840878301e-02,1.745127268786987429e+00,5.677789588098104412e-01
1.971800035243282886e-02,1.784398654628827297e+00,5.680677121255457429e-01
2.081344481645687472e-02,1.824727902715412853e+00,5.675643197660162897e-01
2.190888928048092057e-02,1.866075209307505700e+00,5.668744585999768715e-01
2.300433374450496643e-02,1.908400221883892689e+00,5.673557028403994895e-01
2.409977820852901229e-02,1.951661980936210350e+00,5.713582013432693119e-01
2.519522267255305814e-02,1.995818882447953024e+00,5.822202122656130463e-01
2.629066713657710400e-02,2.040828659055019756e+00,6.036975132101888297e-01
2.738611160060114985e-02,2.086648378040250940e+00,6.386411981310722297e-01
2.848155606462519571e-02,2.133234454445424255e+00,6.873549343092152375e-01
2.957700052864924503e-02,2.180542677695898934e+00,7.469247412188011470e-01
3.067244499267329089e-02,2.228528250230020102e+00,8.134224293482540391e-01
3.176788945669733327e-02,2.277145836708754700e+00,8.891485726585905969e-01
3.286333392072137566e-02,2.326349622460056388e+00,9.947310865977921912e-01
3.395877838474542498e-02,2.376093379878168044e+00,1.172973361327891650e+00
3.505422284876947431e-02,2.426330541566994015e+00,1.461746773153784096e+00
3.614966731279351669e-02,2.477014279075679060e+00,1.883494347698200899e+00
3.724511177681756602e-02,2.528097586136078601e+00,2.586617006206329172e+00
3.834055624084160840e-02,2.579533365370027198e+00,3.917768214529906867e+00
3.943600070486565773e-02,2.631274517492243614e+00,5.821189451823546079e+00
4.053144516888970011e-02,2.683274032093896366e+00,7.453936335956809600e+00
4.162688963291374944e-02,2.735485079148559873e+00,7.849128364110746325e+00
4.272233409693779183e-02,2.787861100442965867e+00,6.788549284876303602e+00
4.381777856096184115e-02,2.840355900191473104e+00,4.943707296009400842e+00
4.491322302498588354e-02,2.892923734154252191e+00,3.229191213903581659e+00
4.600866748900993286e-02,2.945519396636505860e+00,2.122462300282469183e+00
4.710411195303397525e-02,2.998098304806437131e+00,1.530721033662283848e+00
4.819955641705802457e-02,3.050616579826868513e+00,1.186987476207600700e+00
4.929500088108207390e-02,3.103031124353215375e+00,9.690908655334244948e-01
5.039044534510611628e-02,3.155299696007889843e+00,8.513707892133466348e-01
5.148588980913015867e-02,3.207380976496019276e+00,8.099553362156578507e-01
5.258133427315420799e-02,3.259234636080818426e+00,8.111688044961802291e-01
5.367677873717825038e-02,3.310821393189937289e+00,8.297152322027178117e-01
5.477222320120229970e-02,3.362103068972925435e+00,8.535089750651713159e-01
5.586766766522634903e-02,3.413042636678247366e+00,8.785513002580215280e-01
5.696311212925039141e-02,3.463604265763128076e+00,9.040706182571458527e-01
5.805855659327444074e-02,3.513753360691836747e+00,9.301049217942819469e-01
5.915400105729849006e-02,3.563456594417870882e+00,9.566653711377844926e-01
6.024944552132253245e-02,3.612681936583011399e+00,9.835889549917894437e-01
6.134488998534658177e-02,3.661398676497410687e+00,1.010605388080422218e+00
6.244033444937061722e-02,3.709577440999728637e+00,1.037426561966710015e+00
6.353577891339466654e-02,3.757190207320562525e+00,1.063803944550931746e+00
6.463122337741870893e-02,3.804210311098631614e+00,1.089551947023308376e+00
6.572666784144275132e-02,3.850612449722722985e+00,1.114549055215442896e+00
6.682211230546680758e-02,3.896372681186762055e+00,1.138728001442855353e+00
6.791755676949084997e-02,3.941468418666467688e+00,1.162062478599126036e+00
6.901300123351489235e-02,3.985878421037687414e+00,1.184554325452595647e+00
7.010844569753894862e-02,4.029582779565373585e+00,1.206222874037066184e+00
7.120389016156299100e-02,4.072562901003568214e+00,1.227096831551538259e+00
7.229933462558703339e-02,4.114801487351205544e+00,1.247208484766599401e+00
7.339477908961108965e-02,4.156282512512445848e+00,1.266589796567148429e+00
7.449022355363513204e-02,4.196991196112824341e+00,1.285269923576864093e+00
7.558566801765917442e-02,4.236913974721958631e+00,1.303273756729137922e+00
7.668111248168321681e-02,4.276038470731981178e+00,1.320621153062948361e+00
7.777655694570725919e-02,4.314353459137809210e+00,1.337326624463233582e+00
7.887200140973131546e-02,4.351848832461213235e+00,1.353399292825575806e+00
7.996744587375535784e-02,4.388515564053459883e+00,1.368843008870859412e+00
8.106289033777940023e-02,4.424345670006411879e+00,1.383656536825537353e+00
8.215833480180345649e-02,4.459332169892677555e+00,1.397833756675499695e+00
8.325377926582749888e-02,4.493469046547573953e+00,1.411363848494748607e+00
8.434922372985154126e-02,4.526751205096624986e+00,1.424231442635051748e+00
8.544466819387558365e-02,4.559174431421955553e+00,1.436416721040172373e+00
8.654011265789963991e-02,4.590735350251884839e+00,1.447895463903499547e+00
8.763555712192368230e-02,4.621431383046855856e+00,1.458639053048462086e+00
8.873100158594772469e-02,4.651260705844729948e+00,1.468614432612377119e+00
8.982644604997176707e-02,4.680222207217641817e+00,1.477784048731814792e+00
9.092189051399580946e-02,4.708315446482365552e+00,1.486105791335273985e+00
9.201733497801986572e-02,4.735540612295238816e+00,1.493532983135192893e+00
9.311277944204390811e-02,4.761898481752292689e+00,1.500014472757494888e+00
9.420822390606795049e-02,4.787390380105672527e+00,1.505494909525237679e+00
9.530366837009200676e-02,4.812018141196292120e+00,1.509915324462513420e+00
9.639911283411604914e-02,4.835784068694353621e+00,1.513214158050432356e+00
9.749455729814009153e-02,4.858690898229250266e+00,1.515328920793105327e+00
9.859000176216414779e-02,4.880741760481287272e+00,1.516198727334368224e+00
9.968544622618819018e-02,4.901940145299911400e+00,1.515767941734907254e+00
1.007808906902122326e-01,4.922289866904221434e+00,1.513991180116674551e+00
1.018763351542362888e-01,4.941795030214087170e+00,1.510839847675270686e+00
1.029717796182603173e-01,4.960459998353005773e+00,1.506310170096724965e+00
1.040672240822843597e-01,4.978289361356918796e+00,1.500432314080869300e+00
1.051626685463084160e-01,4.995287906116670840e+00,1.493279492310931822e+00
1.062581130103324584e-01,5.011460587576086922e+00,1.484974908531567550e+00
1.073535574743565008e-01,5.026812501201860961e+00,1.475692915445321107e+00
1.084490019383805570e-01,5.041348856736418860e+00,1.465649131995589549e+00
1.095444464024045994e-01,5.055074953240454860e+00,1.455073162981399104e+00
1.106398908664286418e-01,5.067996155427272775e+00,1.444158877894559323e+00
1.117353353304526981e-01,5.080117871287010978e+00,1.432994454107338278e+00
1.128307797944767404e-01,5.091445530996034918e+00,1.421493792412851009e+00
1.139262242585007828e-01,5.101984567102967105e+00,1.409391005549355258e+00
1.150216687225248391e-01,5.111740395979782470e+00,1.396430232166414820e+00
1.161171131865488815e-01,5.120718400525180236e+00,1.382985868033692833e+00
1.172125576505729239e-01,5.128923914103626913e+00,1.371449319646893317e+00
1.183080021145969801e-01,5.136362205702624806e+00,1.368651322832468820e+00
1.194034465786210225e-01,5.143038466288995636e+00,1.388856900608432143e+00
1.204988910426450649e-01,5.148957796343205828e+00,1.454782182738370233e+00
1.215943355066691212e-01,5.154125194550080558e+00,1.592228420900253072e+00
1.226897799706931635e-01,5.158545547622665595e+00,1.819951255468600371e+00
1.237852244347171921e-01,5.162223621236160298e+00,2.152764994502559759e+00
1.248806688987412344e-01,5.165164052047598098e+00,2.641133857332337964e+00
1.259761133627652907e-01,5.167371340776519162e+00,3.432315255355331995e+00
1.270715578267893331e-01,5.168849846322101094e+00,4.743231172990527433e+00
1.281670022908133755e-01,5.169603780891752542e+00,6.664940451695532175e+00
1.292624467548374179e-01,5.169637206116087569e+00,8.978150105796798286e+00
1.303578912188614602e-01,5.168954030125319399e+00,1.115599131545770817e+01
1.314533356828855026e-01,5.167558005562587375e+00,1.255023441586688548e+01
1.325487801469095728e-01,5.165452728509250413e+00,1.268690577822351884e+01
1.336442246109336152e-01,5.162641638298098634e+00,1.151618293140302285e+01
1.347396690749576575e-01,5.159128018190526355e+00,9.449835419071606069e+00
1.358351135389816999e-01,5.154914996894111923e+00,7.152416628018040790e+00
1.369305580030057423e-01,5.150005550895275341e+00,5.216839965271261370e+00
1.380260024670297847e-01,5.144402507590279505e+00,3.905548263282888843e+00
1.391214469310538548e-01,5.138108549180754991e+00,3.112518487136460621e+00
1.402168913950778972e-01,5.131126217327998340e+00,2.597499143873550409e+00
1.413123358591019396e-01,5.123457918519068954e+00,2.217547176209438753e+00
1.424077803231259820e-01,5.115105930156469860e+00,1.935431898454480715e+00
1.435032247871500244e-01,5.106072407318261952e+00,1.743181658866983730e+00
1.445986692511740668e-01,5.096359390186156801e+00,1.623106206463450940e+00
1.456941137151981369e-01,5.085968812114392890e+00,1.548989001006433552e+00
1.467895581792221793e-01,5.074902508318968941e+00,1.498374273651692068e+00
1.478850026432462217e-01,5.063162225166557562e+00,1.458317349550692255e+00
1.489804471072702641e-01,5.050749630041765137e+00,1.424006158612790340e+00
1.500758915712943065e-01,5.037666321771917310e+00,1.395139655301042891e+00
1.511713360353183488e-01,5.023913841587589246e+00,1.372936604905800051e+00
1.522667804993423912e-01,5.009493684597833507e+00,1.358422364990960585e+00
1.533622249633664336e-01,4.994407311757329992e+00,1.351763998963907198e+00
1.544576694273904760e-01,4.978656162303911614e+00,1.352254506944178924e+00
1.555531138914145184e-01,4.962241666642860594e+00,1.358597909105242696e+00
1.566485583554385608e-01,4.945165259654587864e+00,1.369254312012743613e+00
1.577440028194626309e-01,4.927428394401650813e+00,1.382716455308618420e+00
1.588394472834866733e-01,4.909032556209765197e+00,1.397677713664469357e+00
1.599348917475107157e-01,4.889979277097008747e+00,1.413103035218640224e+00
1.610303362115347581e-01,4.870270150524403263e+00,1.428233213267633861e+00
1.621257806755588005e-01,4.849906846440008579e+00,1.442552435271838851e+00
1.632212251395828428e-01,4.828891126587272709e+00,1.455741066811506945e+00
1.643166696036069130e-01,4.807224860047823789e+00,1.467627040736117161e+00
1.654121140676309554e-01,4.784910038987283620e+00,1.478142673180192102e+00
1.665075585316549978e-01,4.761948794570878718e+00,1.487289517494584601e+00
1.676030029956790401e-01,4.738343413015602579e+00,1.495111511943002958e+00
1.686984474597030825e-01,4.714096351742862012e+00,1.501675523816606628e+00
1.697938919237271249e-01,4.689210255595148702e+00,1.507057969387631591e+00
1.708893363877511673e-01,4.663687973077992766e+00,1.511336144408065296e+00
1.719847808517752374e-01,4.637532572588001223e+00,1.514583028014301336e+00
1.730802253157992798e-01,4.610747358585125077e+00,1.516864552665783350e+00
1.741756697798233222e-01,4.583335887666919461e+00,1.518238526611581429e+00
1.752711142438473646e-01,4.555301984500180978e+00,1.518754611959868717e+00
1.763665587078714070e-01,4.526649757564960019e+00,1.518454919492598698e+00
1.774620031718954494e-01,4.497383614663375440e+00,1.517374920421912909e+00
1.785574476359194918e-01,4.467508278145392531e+00,1.515544469262327665e+00
1.796528920999435341e-01,4.437028799802209100e+00,1.512988815162345624e+00
1.807483365639675765e-01,4.405950575376038181e+00,1.509729529304693285e+00
1.818437810279916189e-01,4.374279358635824622e+00,1.505785312475547588e+00
1.829392254920156613e-01,4.342021274965066624e+00,1.501172669917638203e+00
1.840346699560397314e-01,4.309182834409364560e+00,1.495906459109648923e+00
1.851301144200637738e-01,4.275770944130285578e+00,1.490000318870755569e+00
1.862255588840878162e-01,4.241792920209930706e+00,1.483466996728942444e+00
1.873210033481118586e-01,4.207256498753483065e+00,1.476318590299845912e+00
1.884164478121359010e-01,4.172169846234090151e+00,1.468566717575323421e+00
1.895118922761599434e-01,4.136541569026786824e+00,1.460222630296384994e+00
1.906073367401840135e-01,4.100380722077227702e+00,1.451297281840313369e+00
1.917027812042080559e-01,4.063696816652875299e+00,1.441801359130424620e+00
1.927982256682320983e-01,4.026499827124445652e+00,1.431745285599073769e+00
1.938936701322561407e-01,3.988800196726977720e+00,1.421139200173264339e+00
1.949891145962801831e-01,3.950608842252089747e+00,1.409992915874826558e+00
1.960845590603042254e-01,3.911937157623786021e+00,1.398315857804817597e+00
1.971800035243282956e-01,3.872797016313606733e+00,1.386116981870957110e+00
1.982754479883523380e-01,3.833200772551861757e+00,1.373404669585856608e+00
1.993708924523763804e-01,3.793161261297553377e+00,1.360186595706731172e+00
2.004663369164004227e-01,3.752691796928038226e+00,1.346469560993641235e+00
2.015617813804244651e-01,3.711806170618054956e+00,1.332259281123739481e+00
2.026572258444485075e-01,3.670518646378534644e+00,1.317560118227373955e+00
2.037526703084725777e-01,3.628843955729680104e+00,1.302374738824176870e+00
2.048481147724966200e-01,3.586797290989500731e+00,1.286703676531225637e+00
2.059435592365206347e-01,3.544394297160886165e+00,1.270544773950961659e+00
2.070390037005446771e-01,3.501651062407775239e+00,1.253892470564464956e+00
2.081344481645687194e-01,3.458584107114194950e+00,1.236736900652896987e+00
2.092298926285927896e-01,3.415210371527153121e+00,1.219062759663406492e+00
2.103253370926168320e-01,3.371547201988602360e+00,1.200847899726843915e+00
2.114207815566408744e-01,3.327612335768534546e+00,1.182061624439708636e+00
2.125162260206649167e-01,3.283423884517174152e+00,1.162662681655013630e+00
2.136116704846889591e-01,3.239000316359336828e+00,1.142597011869931123e+00
2.147071149487130015e-01,3.194360436661624725e+00,1.121795425549306113e+00
2.158025594127370717e-01,3.149523367508783256e+00,1.100171585641595451e+00
2.168980038767611140e-01,3.104508525931191976e+00,1.077621026687919814e+00
2.179934483407851564e-01,3.059335600932841182e+00,1.054022518926815755e+00
2.190888928048091988e-01,3.014024529373154682e+00,1.029244005791652983e+00
2.201843372688332134e-01,2.968595470765995170e+00,1.003156722153886404e+00
2.212797817328572836e-01,2.923068781059633192e+00,9.756630355831970025e-01
2.223752261968813260e-01,2.877464985471343439e+00,9.467458618764030831e-01
2.234706706609053961e-01,2.831804750453891018e+00,9.165493703173829276e-01
2.245661151249294107e-01,2.786108854875842589e+00,8.854993989839455848e-01
2.256615595889534809e-01,2.740398160503558778e+00,8.544611469453747832e-01
2.267570040529774955e-01,2.694693581875538868e+00,8.248997417906606122e-01
2.278524485170015657e-01,2.649016055664810576e+00,7.989472524143143017e-01
2.289478929810256080e-01,2.603386509628128564e+00,7.792291521952519062e-01
2.300433374450496782e-01,2.557825831243074610e+00,7.684983005074979001e-01
2.311387819090736928e-01,2.512354836137718817e+00,7.701978396096156310e-01
2.322342263730977630e-01,2.466994236417715314e+00,7.937712129709036946e-01
2.333296708371217776e-01,2.421764608999317225e+00,8.703349657249070948e-01
2.344251153011458477e-01,2.376686364054610312e+00,1.068407383265222554e+00
2.355205597651698901e-01,2.331779713678253430e+00,1.465770118193440386e+00
2.366160042291939603e-01,2.287064640882420008e+00,2.131068381447882576e+00
2.377114486932179749e-01,2.242560869026603232e+00,3.385630956631083155e+00
2.388068931572420450e-01,2.198287831787096636e+00,5.969842780771111634e+00
2.399023376212660597e-01,2.154264643768730281e+00,9.529115606109504810e+00
2.409977820852901298e-01,2.110510071857348624e+00,1.157618698785810274e+01
2.420932265493141722e-01,2.067042507413623387e+00,1.010916877280251391e+01
2.431886710133382423e-01,2.023879939392403404e+00,6.655112666609541705e+00
2.442841154773622570e-01,1.981039928484900958e+00,4.187080471678609861e+00
2.453795599413863271e-01,1.938539582360230273e+00,3.037316107936997689e+00
2.464750044054103417e-01,1.896395532087471691e+00,2.353046968079417489e+00
2.475704488694343841e-01,1.854623909808200244e+00,1.953321737438122430e+00
2.486658933334584543e-01,1.813240327727155377e+00,1.714806497052688172e+00
2.497613377974824689e-01,1.772259858479805494e+00,1.513955370309497894e+00
2.508567822615065390e-01,1.731697016929817812e+00,1.319474067316566801e+00
2.519522267255305814e-01,1.691565743442702496e+00,1.148028477321549889e+00
2.530476711895546238e-01,1.651879388674754923e+00,1.018220200665509445e+00
2.541431156535786662e-01,1.612650699909044638e+00,9.337673501212281346e-01
2.552385601176027086e-01,1.573891808963224115e+00,8.838249285143495726e-01
2.563340045816267510e-01,1.535614221686919745e+00,8.518860725069175022e-01
2.574294490456507933e-01,1.497828809058437294e+00,8.244180373704463882e-01
2.585248935096748357e-01,1.460545799884940266e+00,7.940258858847100143e-01
2.596203379736989336e-01,1.423774775101190881e+00,7.584861101942753647e-01
2.607157824377229205e-01,1.387524663657664803e+00,7.186259212019834308e-01
2.618112269017470184e-01,1.351803739979514418e+00,6.765746684770173047e-01
2.629066713657710053e-01,1.316619622974253279e+00,6.346933796421175833e-01
2.640021158297951032e-01,1.281979276557687619e+00,5.950298164766089082e-01
2.650975602938191455e-01,1.247889011663253944e+00,5.590829609479655016e-01
2.661930047578431879e-01,1.214354489694734029e+00,5.277271976856005020e-01
2.672884492218672303e-01,1.181380727375876738e+00,5.012261505495796410e-01
2.683838936858912727e-01,1.148972102947271035e+00,4.793151288627792717e-01
2.694793381499153151e-01,1.117132363656389460e+00,4.613416186346238623e-01
2.705747826139393575e-01,1.085864634482564650e+00,4.464398998226840054e-01
2.716702270779633999e-01,1.055171428034471282e+00,4.337027640237555159e-01
2.727656715419874978e-01,1.025054655558591543e+00,4.223161137010023047e-01
2.738611160060114846e-01,9.955156389880582823e-01,4.116390566074342727e-01
2.749565604700355270e-01,9.665551239669100125e-01,4.012310175085712638e-01
2.760520049340595694e-01,9.381732937770536074e-01,3.908392159549631817e-01
2.771474493980836118e-01,9.103697840971610722e-01,3.803630828233680039e-01
2.782428938621077097e-01,8.831436985222250735e-01,3.698098864620256720e-01
2.793383383261316966e-01,8.564936247694220350e-01,3.592515178381854302e-01
2.804337827901557945e-01,8.304176515000433190e-01,3.487881727317505010e-01
2.815292272541797813e-01,8.049133856837369372e-01,3.385213882070945424e-01
2.826246717182038792e-01,7.799779704345486397e-01,3.285366459372466297e-01
2.837201161822279216e-01,7.556081032489745386e-01,3.188943918800634103e-01
2.848155606462519640e-01,7.318000545761090825e-01,3.096276370005726086e-01
2.859110051102760064e-01,7.085496866542007055e-01,3.007441113602030147e-01
2.870064495743000488e-01,6.858524725472512351e-01,2.922310838125483090e-01
2.881018940383240912e-01,6.637035153188726166e-01,2.840612947651735554e-01
2.891973385023481335e-01,6.420975672836277681e-01,2.761988668824172932e-01
2.902927829663721759e-01,6.210290492758279157e-01,2.686044726395925841e-01
2.913882274303962738e-01,6.004920698818662084e-01,2.612393926415936818e-01
